0.0	-4.297	-0.094
0.0005	-4.297	-0.175
0.001	-4.297	-0.198
0.0015	-4.297	-0.233
0.002	-4.297	-0.228
0.0025	-4.297	-0.209
0.003	-4.297	-0.186
0.0035	-4.297	-0.179
0.004	-4.297	-0.164
0.0045	-4.297	-0.144
0.005	-4.297	-0.111
0.0055	-4.297	-0.069
0.006	-4.297	-0.029
0.0065	-4.297	0.004
0.007	-4.297	0.031
0.0075	-4.297	0.084
0.008	-4.297	0.114
0.0085	-4.297	0.126
0.009	-4.297	0.147
0.0095	-4.297	0.184
0.01	-4.297	0.160
0.0105	-4.297	0.150
0.011	-4.297	0.128
0.0115	-4.297	0.116
0.012	-4.297	0.100
0.0125	-4.297	0.099
0.013	-4.297	0.067
0.0135	-4.297	0.004
0.014	-4.297	-0.035
0.0145	-4.297	-0.018
0.015	-4.297	-0.047
0.0155	-4.297	-0.080
0.016	-4.297	-0.109
0.0165	-4.297	-0.137
0.017	-4.297	-0.156
0.0175	-4.297	-0.159
0.018	-4.297	-0.185
0.0185	-4.297	-0.197
0.019	-4.297	-0.186
0.0195	-4.297	-0.173
0.02	-4.297	-0.171
0.0205	-4.297	-0.167
0.021	-4.297	-0.145
0.0215	-4.297	-0.109
0.022	-4.297	-0.078
0.0225	-4.297	-0.039
0.023	-4.297	-0.022
0.0235	-4.297	0.005
0.024	-4.297	0.050
0.0245	-4.297	0.075
0.025	-4.297	0.100
0.0255	-4.297	0.118
0.026	-4.297	0.142
0.0265	-4.297	0.144
0.027	-4.297	0.140
0.0275	-4.297	0.141
0.028	-4.297	0.146
0.0285	-4.297	0.138
0.029	-4.297	0.132
0.0295	-4.297	0.090
0.03	-4.297	0.044
0.0305	-4.297	0.008
0.031	-4.297	-0.017
0.0315	-4.297	-0.027
0.032	-4.297	-0.052
0.0325	-4.297	-0.092
0.033	-4.297	-0.123
0.0335	-4.297	-0.128
0.034	-4.297	-0.170
0.0345	-4.297	-0.196
0.035	-4.297	-0.194
0.0355	-4.297	-0.180
0.036	-4.297	-0.176
0.0365	-4.297	-0.176
0.037	-4.297	-0.179
0.0375	-4.297	-0.174
0.038	-4.297	-0.163
0.0385	-4.297	-0.116
0.039	-4.297	-0.072
0.0395	-4.298	-0.025
0.04	-4.298	0.001
0.0405	-4.298	0.045
0.041	-4.298	0.081
0.0415	-4.298	0.104
0.042	-4.298	0.134
0.0425	-4.298	0.148
0.043	-4.298	0.156
0.0435	-4.298	0.151
0.044	-4.298	0.141
0.0445	-4.298	0.129
0.045	-4.298	0.122
0.0455	-4.298	0.113
0.046	-4.298	0.097
0.0465	-4.298	0.073
0.047	-4.298	0.049
0.0475	-4.298	0.020
0.048	-4.298	-0.010
0.0485	-4.298	-0.043
0.049	-4.298	-0.087
0.0495	-4.298	-0.122
0.05	-4.298	-0.128
0.0505	-4.298	-0.164
0.051	-4.298	-0.170
0.0515	-4.298	-0.188
0.052	-4.298	-0.199
0.0525	-4.298	-0.212
0.053	-4.298	-0.202
0.0535	-4.298	-0.217
0.054	-4.298	-0.216
0.0545	-4.298	-0.175
0.055	-4.298	-0.114
0.0555	-4.298	-0.067
0.056	-4.298	-0.045
0.0565	-4.298	-0.015
0.057	-4.298	0.016
0.0575	-4.298	0.066
0.058	-4.298	0.086
0.0585	-4.298	0.129
0.059	-4.298	0.140
0.0595	-4.298	0.149
0.06	-4.298	0.140
0.0605	-4.298	0.138
0.061	-4.298	0.143
0.0615	-4.298	0.145
0.062	-4.298	0.137
0.0625	-4.298	0.132
0.063	-4.298	0.100
0.0635	-4.298	0.060
0.064	-4.298	0.021
0.0645	-4.298	-0.004
0.065	-4.298	-0.049
0.0655	-4.298	-0.085
0.066	-4.298	-0.107
0.0665	-4.298	-0.114
0.067	-4.298	-0.143
0.0675	-4.298	-0.166
0.068	-4.298	-0.194
0.0685	-4.298	-0.203
0.069	-4.298	-0.206
0.0695	-4.298	-0.199
0.07	-4.298	-0.182
0.0705	-4.298	-0.178
0.071	-4.298	-0.160
0.0715	-4.298	-0.132
0.072	-4.298	-0.085
0.0725	-4.298	-0.050
0.073	-4.298	-0.014
0.0735	-4.298	0.012
0.074	-4.298	0.043
0.0745	-4.298	0.076
0.075	-4.298	0.097
0.0755	-4.298	0.125
0.076	-4.298	0.151
0.0765	-4.298	0.159
0.077	-4.298	0.159
0.0775	-4.298	0.139
0.078	-4.298	0.135
0.0785	-4.298	0.129
0.079	-4.298	0.117
0.0795	-4.298	0.106
0.08	-4.298	0.070
0.0805	-4.298	0.034
0.081	-4.298	0.003
0.0815	-4.298	-0.018
0.082	-4.298	-0.059
0.0825	-4.298	-0.097
0.083	-4.298	-0.122
0.0835	-4.298	-0.152
0.084	-4.298	-0.199
0.0845	-4.298	-0.208
0.085	-4.298	-0.218
0.0855	-4.298	-0.224
0.086	-4.298	-0.200
0.0865	-4.298	-0.171
0.087	-4.298	-0.143
0.0875	-4.298	-0.121
0.088	-4.298	-0.115
0.0885	-4.298	-0.077
0.089	-4.298	-0.020
0.0895	-4.298	-0.002
0.09	-4.298	-0.013
0.0905	-4.298	0.007
0.091	-4.298	0.061
0.0915	-4.298	0.081
0.092	-4.298	0.098
0.0925	-4.298	0.110
0.093	-4.298	0.124
0.0935	-4.298	0.115
0.094	-4.298	0.127
0.0945	-4.298	0.119
0.095	-4.298	0.104
0.0955	-4.298	0.099
0.096	-4.298	0.110
0.0965	-4.298	0.074
0.097	-4.298	0.035
0.0975	-4.298	-0.011
0.098	-4.298	-0.033
0.0985	-4.298	-0.081
0.099	-4.298	-0.102
0.0995	-4.298	-0.119
0.1	-4.298	-0.126
0.1005	-4.298	-0.145
0.101	-4.298	-0.155
0.1015	-4.298	-0.189
0.102	-4.298	-0.188
0.1025	-4.298	-0.166
0.103	-4.298	-0.160
0.1035	-4.298	-0.169
0.104	-4.298	-0.164
0.1045	-4.298	-0.161
0.105	-4.298	-0.132
0.1055	-4.298	-0.087
0.106	-4.298	-0.054
0.1065	-4.298	-0.029
0.107	-4.298	-0.007
0.1075	-4.298	0.044
0.108	-4.298	0.071
0.1085	-4.298	0.101
0.109	-4.298	0.125
0.1095	-4.298	0.160
0.11	-4.298	0.154
0.1105	-4.298	0.150
0.111	-4.298	0.144
0.1115	-4.298	0.126
0.112	-4.298	0.110
0.1125	-4.298	0.106
0.113	-4.298	0.072
0.1135	-4.298	0.048
0.114	-4.298	0.014
0.1145	-4.298	-0.023
0.115	-4.298	-0.053
0.1155	-4.298	-0.081
0.116	-4.298	-0.108
0.1165	-4.298	-0.134
0.117	-4.298	-0.173
0.1175	-4.298	-0.191
0.118	-4.298	-0.218
0.1185	-4.298	-0.234
0.119	-4.298	-0.197
0.1195	-4.298	-0.189
0.12	-4.298	-0.168
0.1205	-4.298	-0.164
0.121	-4.298	-0.148
0.1215	-4.298	-0.135
0.122	-4.298	-0.083
0.1225	-4.298	-0.038
0.123	-4.298	-0.023
0.1235	-4.298	0.006
0.124	-4.298	0.043
0.1245	-4.298	0.086
0.125	-4.298	0.105
0.1255	-4.298	0.125
0.126	-4.298	0.140
0.1265	-4.298	0.163
0.127	-4.298	0.137
0.1275	-4.298	0.133
0.128	-4.298	0.131
0.1285	-4.298	0.126
0.129	-4.298	0.123
0.1295	-4.298	0.103
0.13	-4.298	0.050
0.1305	-4.298	0.024
0.131	-4.298	-0.014
0.1315	-4.298	-0.045
0.132	-4.298	-0.070
0.1325	-4.298	-0.090
0.133	-4.298	-0.105
0.1335	-4.298	-0.136
0.134	-4.298	-0.169
0.1345	-4.298	-0.205
0.135	-4.298	-0.225
0.1355	-4.298	-0.195
0.136	-4.298	-0.169
0.1365	-4.298	-0.155
0.137	-4.298	-0.164
0.1375	-4.298	-0.172
0.138	-4.298	-0.143
0.1385	-4.298	-0.096
0.139	-4.298	-0.059
0.1395	-4.298	-0.030
0.14	-4.298	0.009
0.1405	-4.298	0.041
0.141	-4.298	0.083
0.1415	-4.298	0.102
0.142	-4.298	0.139
0.1425	-4.298	0.157
0.143	-4.298	0.174
0.1435	-4.298	0.146
0.144	-4.298	0.128
0.1445	-4.298	0.116
0.145	-4.298	0.120
0.1455	-4.298	0.105
0.146	-4.298	0.083
0.1465	-4.298	0.058
0.147	-4.298	0.027
0.1475	-4.298	-0.013
0.148	-4.298	-0.023
0.1485	-4.298	-0.060
0.149	-4.298	-0.076
0.1495	-4.298	-0.081
0.15	-4.298	-0.113
0.1505	-4.298	-0.170
0.151	-4.298	-0.213
0.1515	-4.298	-0.233
0.152	-4.298	-0.244
0.1525	-4.298	-0.223
0.153	-4.298	-0.209
0.1535	-4.298	-0.198
0.154	-4.298	-0.185
0.1545	-4.298	-0.157
0.155	-4.298	-0.122
0.1555	-4.298	-0.083
0.156	-4.298	-0.042
0.1565	-4.298	0.004
0.157	-4.298	0.047
0.1575	-4.298	0.086
0.158	-4.298	0.121
0.1585	-4.298	0.121
0.159	-4.298	0.121
0.1595	-4.298	0.136
0.16	-4.298	0.153
0.1605	-4.298	0.130
0.161	-4.298	0.136
0.1615	-4.298	0.134
0.162	-4.298	0.122
0.1625	-4.298	0.109
0.163	-4.298	0.077
0.1635	-4.298	0.030
0.164	-4.298	-0.010
0.1645	-4.298	-0.036
0.165	-4.298	-0.070
0.1655	-4.298	-0.098
0.166	-4.298	-0.106
0.1665	-4.298	-0.109
0.167	-4.298	-0.134
0.1675	-4.298	-0.151
0.168	-4.298	-0.170
0.1685	-4.298	-0.191
0.169	-4.298	-0.178
0.1695	-4.298	-0.194
0.17	-4.298	-0.197
0.1705	-4.298	-0.199
0.171	-4.298	-0.174
0.1715	-4.298	-0.138
0.172	-4.298	-0.109
0.1725	-4.298	-0.061
0.173	-4.298	-0.032
0.1735	-4.298	-0.008
0.174	-4.298	0.027
0.1745	-4.298	0.078
0.175	-4.298	0.095
0.1755	-4.298	0.118
0.176	-4.298	0.135
0.1765	-4.298	0.153
0.177	-4.298	0.128
0.1775	-4.298	0.119
0.178	-4.298	0.115
0.1785	-4.298	0.115
0.179	-4.298	0.095
0.1795	-4.298	0.088
0.18	-4.298	0.085
0.1805	-4.298	0.078
0.181	-4.298	0.051
0.1815	-4.298	0.010
0.182	-4.298	-0.055
0.1825	-4.298	-0.101
0.183	-4.298	-0.120
0.1835	-4.298	-0.168
0.184	-4.298	-0.194
0.1845	-4.298	-0.202
0.185	-4.298	-0.247
0.1855	-4.300	-0.213
0.186	-4.300	-0.199
0.1865	-4.300	-0.204
0.187	-4.300	-0.198
0.1875	-4.300	-0.191
0.188	-4.300	-0.161
0.1885	-4.300	-0.125
0.189	-4.300	-0.072
0.1895	-4.300	-0.039
0.19	-4.300	-0.012
0.1905	-4.300	0.016
0.191	-4.300	0.059
0.1915	-4.300	0.113
0.192	-4.300	0.138
0.1925	-4.300	0.148
0.193	-4.300	0.156
0.1935	-4.300	0.130
0.194	-4.300	0.130
0.1945	-4.300	0.123
0.195	-4.300	0.122
0.1955	-4.300	0.120
0.196	-4.300	0.105
0.1965	-4.300	0.081
0.197	-4.300	0.033
0.1975	-4.300	-0.012
0.198	-4.300	-0.032
0.1985	-4.300	-0.059
0.199	-4.300	-0.089
0.1995	-4.300	-0.101
0.2	-4.300	-0.140
0.2005	-4.300	-0.168
0.201	-4.300	-0.192
0.2015	-4.300	-0.216
0.202	-4.300	-0.231
0.2025	-4.300	-0.202
0.203	-4.300	-0.183
0.2035	-4.300	-0.167
0.204	-4.300	-0.163
0.2045	-4.300	-0.133
0.205	-4.300	-0.125
0.2055	-4.300	-0.087
0.206	-4.300	-0.064
0.2065	-4.300	-0.039
0.207	-4.300	0.002
0.2075	-4.300	0.027
0.208	-4.300	0.076
0.2085	-4.300	0.095
0.209	-4.300	0.113
0.2095	-4.300	0.136
0.21	-4.300	0.155
0.2105	-4.300	0.119
0.211	-4.300	0.134
0.2115	-4.300	0.121
0.212	-4.300	0.132
0.2125	-4.300	0.129
0.213	-4.300	0.110
0.2135	-4.300	0.066
0.214	-4.300	0.041
0.2145	-4.300	-0.001
0.215	-4.300	-0.030
0.2155	-4.300	-0.075
0.216	-4.300	-0.090
0.2165	-4.300	-0.113
0.217	-4.300	-0.144
0.2175	-4.300	-0.168
0.218	-4.300	-0.190
0.2185	-4.300	-0.214
0.219	-4.300	-0.199
0.2195	-4.300	-0.207
0.22	-4.300	-0.198
0.2205	-4.300	-0.192
0.221	-4.300	-0.170
0.2215	-4.300	-0.129
0.222	-4.300	-0.085
0.2225	-4.300	-0.048
0.223	-4.300	-0.027
0.2235	-4.300	0.005
0.224	-4.300	0.038
0.2245	-4.300	0.074
0.225	-4.300	0.096
0.2255	-4.300	0.118
0.226	-4.300	0.124
0.2265	-4.300	0.136
0.227	-4.300	0.109
0.2275	-4.300	0.135
0.228	-4.302	0.136
0.2285	-4.302	0.144
0.229	-4.302	0.130
0.2295	-4.302	0.113
0.23	-4.302	0.086
0.2305	-4.302	0.029
0.231	-4.302	-0.013
0.2315	-4.302	-0.036
0.232	-4.302	-0.071
0.2325	-4.302	-0.091
0.233	-4.302	-0.094
0.2335	-4.302	-0.147
0.234	-4.302	-0.187
0.2345	-4.302	-0.199
0.235	-4.302	-0.207
0.2355	-4.302	-0.182
0.236	-4.302	-0.175
0.2365	-4.302	-0.155
0.237	-4.302	-0.149
0.2375	-4.302	-0.156
0.238	-4.302	-0.141
0.2385	-4.302	-0.106
0.239	-4.302	-0.066
0.2395	-4.302	-0.051
0.24	-4.302	-0.026
0.2405	-4.302	0.001
0.241	-4.302	0.037
0.2415	-4.302	0.079
0.242	-4.302	0.116
0.2425	-4.302	0.120
0.243	-4.302	0.153
0.2435	-4.302	0.140
0.244	-4.302	0.123
0.2445	-4.302	0.115
0.245	-4.302	0.109
0.2455	-4.302	0.100
0.246	-4.302	0.096
0.2465	-4.302	0.085
0.247	-4.302	0.063
0.2475	-4.302	0.029
0.248	-4.302	-0.004
0.2485	-4.302	-0.054
0.249	-4.302	-0.096
0.2495	-4.302	-0.127
0.25	-4.302	-0.155
0.2505	-4.302	-0.184
0.251	-4.302	-0.213
0.2515	-4.302	-0.222
0.252	-4.302	-0.233
0.2525	-4.302	-0.203
0.253	-4.302	-0.192
0.2535	-4.302	-0.183
0.254	-4.302	-0.155
0.2545	-4.302	-0.119
0.255	-4.302	-0.090
0.2555	-4.302	-0.062
0.256	-4.302	-0.055
0.2565	-4.302	-0.015
0.257	-4.302	0.031
0.2575	-4.302	0.068
0.258	-4.302	0.128
0.2585	-4.302	0.144
0.259	-4.302	0.154
0.2595	-4.302	0.157
0.26	-4.302	0.145
0.2605	-4.303	0.114
0.261	-4.303	0.108
0.2615	-4.303	0.106
0.262	-4.303	0.095
0.2625	-4.303	0.086
0.263	-4.303	0.079
0.2635	-4.303	0.037
0.264	-4.303	-0.009
0.2645	-4.303	-0.034
0.265	-4.303	-0.070
0.2655	-4.303	-0.103
0.266	-4.303	-0.122
0.2665	-4.303	-0.132
0.267	-4.303	-0.167
0.2675	-4.303	-0.167
0.268	-4.303	-0.154
0.2685	-4.303	-0.166
0.269	-4.303	-0.178
0.2695	-4.303	-0.192
0.27	-4.303	-0.181
0.2705	-4.303	-0.141
0.271	-4.303	-0.117
0.2715	-4.303	-0.097
0.272	-4.303	-0.063
0.2725	-4.303	-0.037
0.273	-4.303	-0.014
0.2735	-4.303	0.010
0.274	-4.303	0.021
0.2745	-4.303	0.068
0.275	-4.303	0.086
0.2755	-4.303	0.120
0.276	-4.303	0.138
0.2765	-4.303	0.154
0.277	-4.303	0.117
0.2775	-4.303	0.130
0.278	-4.303	0.119
0.2785	-4.303	0.127
0.279	-4.303	0.106
0.2795	-4.303	0.100
0.28	-4.303	0.066
0.2805	-4.303	0.030
0.281	-4.303	-0.006
0.2815	-4.303	-0.026
0.282	-4.303	-0.063
0.2825	-4.303	-0.083
0.283	-4.303	-0.105
0.2835	-4.303	-0.126
0.284	-4.303	-0.160
0.2845	-4.303	-0.184
0.285	-4.303	-0.209
0.2855	-4.303	-0.205
0.286	-4.303	-0.193
0.2865	-4.303	-0.189
0.287	-4.303	-0.183
0.2875	-4.303	-0.167
0.288	-4.303	-0.144
0.2885	-4.303	-0.097
0.289	-4.305	-0.039
0.2895	-4.305	-0.010
0.29	-4.305	0.014
0.2905	-4.305	0.045
0.291	-4.305	0.083
0.2915	-4.305	0.091
0.292	-4.305	0.128
0.2925	-4.305	0.138
0.293	-4.305	0.161
0.2935	-4.305	0.141
0.294	-4.305	0.134
0.2945	-4.305	0.131
0.295	-4.305	0.126
0.2955	-4.305	0.126
0.296	-4.305	0.116
0.2965	-4.305	0.083
0.297	-4.305	0.043
0.2975	-4.305	0.007
0.298	-4.305	-0.019
0.2985	-4.305	-0.056
0.299	-4.305	-0.079
0.2995	-4.305	-0.105
0.3	-4.305	-0.127
0.3005	-4.305	-0.160
0.301	-4.305	-0.184
0.3015	-4.305	-0.212
0.302	-4.305	-0.213
0.3025	-4.305	-0.204
0.303	-4.305	-0.197
0.3035	-4.305	-0.188
0.304	-4.305	-0.186
0.3045	-4.305	-0.168
0.305	-4.305	-0.125
0.3055	-4.305	-0.068
0.306	-4.305	-0.039
0.3065	-4.305	-0.015
0.307	-4.305	0.012
0.3075	-4.305	0.058
0.308	-4.305	0.087
0.3085	-4.305	0.122
0.309	-4.305	0.154
0.3095	-4.305	0.160
0.31	-4.305	0.153
0.3105	-4.305	0.149
0.311	-4.305	0.143
0.3115	-4.305	0.130
0.312	-4.305	0.129
0.3125	-4.305	0.119
0.313	-4.305	0.098
0.3135	-4.305	0.060
0.314	-4.305	0.029
0.3145	-4.305	-0.003
0.315	-4.306	-0.038
0.3155	-4.306	-0.063
0.316	-4.306	-0.093
0.3165	-4.306	-0.125
0.317	-4.306	-0.157
0.3175	-4.306	-0.192
0.318	-4.306	-0.230
0.3185	-4.306	-0.233
0.319	-4.306	-0.214
0.3195	-4.306	-0.168
0.32	-4.306	-0.164
0.3205	-4.306	-0.167
0.321	-4.306	-0.166
0.3215	-4.306	-0.119
0.322	-4.306	-0.078
0.3225	-4.306	-0.025
0.323	-4.306	-0.011
0.3235	-4.306	0.015
0.324	-4.306	0.040
0.3245	-4.306	0.078
0.325	-4.306	0.107
0.3255	-4.306	0.132
0.326	-4.306	0.134
0.3265	-4.306	0.150
0.327	-4.306	0.152
0.3275	-4.306	0.137
0.328	-4.306	0.134
0.3285	-4.306	0.147
0.329	-4.306	0.130
0.3295	-4.306	0.110
0.33	-4.306	0.072
0.3305	-4.306	0.030
0.331	-4.306	-0.006
0.3315	-4.306	-0.018
0.332	-4.306	-0.051
0.3325	-4.306	-0.084
0.333	-4.306	-0.117
0.3335	-4.306	-0.145
0.334	-4.306	-0.181
0.3345	-4.306	-0.193
0.335	-4.306	-0.200
0.3355	-4.306	-0.177
0.336	-4.306	-0.158
0.3365	-4.306	-0.145
0.337	-4.306	-0.135
0.3375	-4.306	-0.155
0.338	-4.306	-0.124
0.3385	-4.306	-0.082
0.339	-4.306	-0.035
0.3395	-4.306	-0.022
0.34	-4.308	-0.010
0.3405	-4.308	-0.001
0.341	-4.308	0.040
0.3415	-4.308	0.055
0.342	-4.308	0.079
0.3425	-4.308	0.116
0.343	-4.308	0.156
0.3435	-4.308	0.149
0.344	-4.308	0.141
0.3445	-4.308	0.144
0.345	-4.308	0.137
0.3455	-4.308	0.138
0.346	-4.308	0.118
0.3465	-4.308	0.095
0.347	-4.308	0.047
0.3475	-4.308	-0.009
0.348	-4.308	-0.015
0.3485	-4.308	-0.045
0.349	-4.308	-0.090
0.3495	-4.308	-0.099
0.35	-4.308	-0.115
0.3505	-4.308	-0.154
0.351	-4.308	-0.170
0.3515	-4.308	-0.200
0.352	-4.308	-0.191
0.3525	-4.308	-0.183
0.353	-4.308	-0.173
0.3535	-4.308	-0.188
0.354	-4.308	-0.201
0.3545	-4.308	-0.179
0.355	-4.308	-0.138
0.3555	-4.308	-0.092
0.356	-4.308	-0.057
0.3565	-4.308	-0.044
0.357	-4.308	0.006
0.3575	-4.308	0.063
0.358	-4.308	0.089
0.3585	-4.308	0.100
0.359	-4.308	0.114
0.3595	-4.308	0.138
0.36	-4.308	0.150
0.3605	-4.308	0.146
0.361	-4.308	0.141
0.3615	-4.308	0.128
0.362	-4.308	0.136
0.3625	-4.308	0.120
0.363	-4.308	0.097
0.3635	-4.308	0.056
0.364	-4.308	0.020
0.3645	-4.309	0.002
0.365	-4.309	-0.025
0.3655	-4.309	-0.052
0.366	-4.309	-0.088
0.3665	-4.309	-0.123
0.367	-4.309	-0.165
0.3675	-4.309	-0.193
0.368	-4.309	-0.233
0.3685	-4.309	-0.231
0.369	-4.309	-0.222
0.3695	-4.309	-0.204
0.37	-4.309	-0.202
0.3705	-4.309	-0.189
0.371	-4.309	-0.166
0.3715	-4.309	-0.107
0.372	-4.309	-0.068
0.3725	-4.309	-0.044
0.373	-4.309	-0.025
0.3735	-4.309	0.006
0.374	-4.309	0.030
0.3745	-4.309	0.066
0.375	-4.309	0.093
0.3755	-4.309	0.124
0.376	-4.309	0.141
0.3765	-4.309	0.147
0.377	-4.309	0.138
0.3775	-4.309	0.132
0.378	-4.309	0.135
0.3785	-4.309	0.140
0.379	-4.309	0.131
0.3795	-4.309	0.114
0.38	-4.309	0.077
0.3805	-4.309	0.045
0.381	-4.309	-0.003
0.3815	-4.309	-0.030
0.382	-4.309	-0.066
0.3825	-4.309	-0.100
0.383	-4.309	-0.115
0.3835	-4.309	-0.128
0.384	-4.309	-0.160
0.3845	-4.309	-0.188
0.385	-4.309	-0.210
0.3855	-4.309	-0.211
0.386	-4.309	-0.196
0.3865	-4.309	-0.197
0.387	-4.309	-0.181
0.3875	-4.309	-0.165
0.388	-4.309	-0.131
0.3885	-4.309	-0.100
0.389	-4.311	-0.046
0.3895	-4.311	-0.008
0.39	-4.311	0.016
0.3905	-4.311	0.049
0.391	-4.311	0.090
0.3915	-4.311	0.094
0.392	-4.311	0.122
0.3925	-4.311	0.137
0.393	-4.311	0.163
0.3935	-4.311	0.144
0.394	-4.311	0.125
0.3945	-4.311	0.117
0.395	-4.311	0.111
0.3955	-4.311	0.114
0.396	-4.311	0.114
0.3965	-4.311	0.086
0.397	-4.311	0.038
0.3975	-4.311	0.001
0.398	-4.311	-0.038
0.3985	-4.311	-0.047
0.399	-4.311	-0.083
0.3995	-4.311	-0.099
0.4	-4.311	-0.114
0.4005	-4.311	-0.147
0.401	-4.311	-0.191
0.4015	-4.311	-0.210
0.402	-4.311	-0.198
0.4025	-4.311	-0.201
0.403	-4.311	-0.180
0.4035	-4.311	-0.167
0.404	-4.311	-0.154
0.4045	-4.311	-0.146
0.405	-4.311	-0.102
0.4055	-4.311	-0.064
0.406	-4.311	-0.034
0.4065	-4.311	-0.013
0.407	-4.311	0.014
0.4075	-4.311	0.058
0.408	-4.311	0.079
0.4085	-4.311	0.111
0.409	-4.311	0.136
0.4095	-4.311	0.150
0.41	-4.311	0.148
0.4105	-4.311	0.134
0.411	-4.311	0.130
0.4115	-4.311	0.133
0.412	-4.311	0.136
0.4125	-4.311	0.119
0.413	-4.311	0.106
0.4135	-4.311	0.064
0.414	-4.311	0.017
0.4145	-4.311	-0.001
0.415	-4.311	-0.023
0.4155	-4.311	-0.058
0.416	-4.313	-0.094
0.4165	-4.313	-0.132
0.417	-4.313	-0.169
0.4175	-4.313	-0.195
0.418	-4.313	-0.208
0.4185	-4.313	-0.215
0.419	-4.313	-0.213
0.4195	-4.313	-0.200
0.42	-4.313	-0.193
0.4205	-4.313	-0.179
0.421	-4.313	-0.170
0.4215	-4.313	-0.118
0.422	-4.313	-0.082
0.4225	-4.313	-0.040
0.423	-4.313	-0.020
0.4235	-4.313	0.016
0.424	-4.313	0.028
0.4245	-4.313	0.060
0.425	-4.313	0.081
0.4255	-4.313	0.112
0.426	-4.313	0.130
0.4265	-4.313	0.141
0.427	-4.313	0.143
0.4275	-4.313	0.130
0.428	-4.313	0.134
0.4285	-4.313	0.135
0.429	-4.313	0.134
0.4295	-4.313	0.113
0.43	-4.313	0.090
0.4305	-4.313	0.038
0.431	-4.313	0.011
0.4315	-4.313	-0.019
0.432	-4.313	-0.040
0.4325	-4.313	-0.072
0.433	-4.313	-0.102
0.4335	-4.313	-0.133
0.434	-4.313	-0.180
0.4345	-4.313	-0.192
0.435	-4.313	-0.208
0.4355	-4.313	-0.221
0.436	-4.313	-0.205
0.4365	-4.313	-0.207
0.437	-4.313	-0.181
0.4375	-4.313	-0.158
0.438	-4.313	-0.116
0.4385	-4.313	-0.075
0.439	-4.313	-0.047
0.4395	-4.313	-0.021
0.44	-4.313	-0.008
0.4405	-4.313	0.007
0.441	-4.313	0.046
0.4415	-4.313	0.069
0.442	-4.313	0.097
0.4425	-4.313	0.120
0.443	-4.313	0.138
0.4435	-4.313	0.132
0.444	-4.313	0.111
0.4445	-4.313	0.113
0.445	-4.313	0.101
0.4455	-4.313	0.092
0.446	-4.314	0.089
0.4465	-4.314	0.071
0.447	-4.314	0.026
0.4475	-4.314	-0.010
0.448	-4.314	-0.022
0.4485	-4.314	-0.041
0.449	-4.314	-0.070
0.4495	-4.314	-0.086
0.45	-4.314	-0.112
0.4505	-4.314	-0.154
0.451	-4.314	-0.176
0.4515	-4.314	-0.216
0.452	-4.314	-0.205
0.4525	-4.314	-0.191
0.453	-4.314	-0.181
0.4535	-4.314	-0.178
0.454	-4.314	-0.177
0.4545	-4.314	-0.153
0.455	-4.314	-0.108
0.4555	-4.314	-0.058
0.456	-4.314	-0.026
0.4565	-4.314	-0.004
0.457	-4.314	0.022
0.4575	-4.314	0.077
0.458	-4.314	0.107
0.4585	-4.314	0.129
0.459	-4.314	0.155
0.4595	-4.314	0.173
0.46	-4.314	0.178
0.4605	-4.314	0.173
0.461	-4.314	0.152
0.4615	-4.314	0.136
0.462	-4.314	0.115
0.4625	-4.314	0.113
0.463	-4.314	0.082
0.4635	-4.314	0.030
0.464	-4.314	-0.011
0.4645	-4.314	-0.035
0.465	-4.314	-0.055
0.4655	-4.314	-0.058
0.466	-4.314	-0.091
0.4665	-4.314	-0.106
0.467	-4.314	-0.152
0.4675	-4.314	-0.180
0.468	-4.314	-0.225
0.4685	-4.314	-0.219
0.469	-4.314	-0.207
0.4695	-4.314	-0.186
0.47	-4.314	-0.188
0.4705	-4.314	-0.171
0.471	-4.314	-0.155
0.4715	-4.314	-0.129
0.472	-4.314	-0.085
0.4725	-4.314	-0.047
0.473	-4.314	-0.022
0.4735	-4.314	0.013
0.474	-4.314	0.052
0.4745	-4.314	0.089
0.475	-4.314	0.114
0.4755	-4.314	0.139
0.476	-4.314	0.136
0.4765	-4.314	0.137
0.477	-4.314	0.122
0.4775	-4.314	0.139
0.478	-4.314	0.130
0.4785	-4.314	0.121
0.479	-4.314	0.117
0.4795	-4.314	0.109
0.48	-4.314	0.085
0.4805	-4.314	0.044
0.481	-4.314	0.003
0.4815	-4.314	-0.022
0.482	-4.314	-0.025
0.4825	-4.314	-0.070
0.483	-4.314	-0.098
0.4835	-4.314	-0.124
0.484	-4.314	-0.147
0.4845	-4.314	-0.181
0.485	-4.314	-0.185
0.4855	-4.316	-0.186
0.486	-4.316	-0.180
0.4865	-4.316	-0.164
0.487	-4.316	-0.152
0.4875	-4.316	-0.160
0.488	-4.316	-0.146
0.4885	-4.316	-0.118
0.489	-4.316	-0.080
0.4895	-4.316	-0.048
0.49	-4.316	-0.037
0.4905	-4.316	-0.001
0.491	-4.316	0.024
0.4915	-4.316	0.046
0.492	-4.316	0.075
0.4925	-4.316	0.098
0.493	-4.316	0.136
0.4935	-4.316	0.140
0.494	-4.316	0.129
0.4945	-4.316	0.114
0.495	-4.316	0.102
0.4955	-4.316	0.102
0.496	-4.316	0.083
0.4965	-4.316	0.070
0.497	-4.316	0.037
0.4975	-4.316	-0.005
0.498	-4.316	-0.030
0.4985	-4.316	-0.048
0.499	-4.316	-0.094
0.4995	-4.316	-0.111
0.5	-4.316	-0.139
0.5005	-4.316	-0.188
0.501	-4.316	-0.206
0.5015	-4.316	-0.225
0.502	-4.316	-0.222
0.5025	-4.316	-0.216
0.503	-4.316	-0.208
0.5035	-4.316	-0.211
0.504	-4.316	-0.192
0.5045	-4.316	-0.174
0.505	-4.316	-0.119
0.5055	-4.316	-0.059
0.506	-4.316	-0.022
0.5065	-4.316	-0.007
0.507	-4.316	0.014
0.5075	-4.316	0.034
0.508	-4.316	0.087
0.5085	-4.316	0.120
0.509	-4.316	0.148
0.5095	-4.316	0.166
0.51	-4.316	0.172
0.5105	-4.316	0.144
0.511	-4.316	0.138
0.5115	-4.316	0.129
0.512	-4.316	0.118
0.5125	-4.316	0.102
0.513	-4.316	0.075
0.5135	-4.316	0.032
0.514	-4.316	0.004
0.5145	-4.316	-0.001
0.515	-4.316	-0.022
0.5155	-4.316	-0.043
0.516	-4.316	-0.074
0.5165	-4.316	-0.103
0.517	-4.316	-0.151
0.5175	-4.316	-0.170
0.518	-4.316	-0.205
0.5185	-4.316	-0.222
0.519	-4.316	-0.225
0.5195	-4.316	-0.206
0.52	-4.316	-0.204
0.5205	-4.316	-0.196
0.521	-4.316	-0.186
0.5215	-4.316	-0.139
0.522	-4.316	-0.098
0.5225	-4.316	-0.061
0.523	-4.316	-0.040
0.5235	-4.316	-0.011
0.524	-4.316	0.021
0.5245	-4.316	0.074
0.525	-4.316	0.101
0.5255	-4.316	0.116
0.526	-4.316	0.148
0.5265	-4.316	0.171
0.527	-4.316	0.159
0.5275	-4.316	0.144
0.528	-4.316	0.135
0.5285	-4.316	0.136
0.529	-4.316	0.128
0.5295	-4.316	0.102
0.53	-4.316	0.061
0.5305	-4.316	0.028
0.531	-4.316	-0.010
0.5315	-4.316	-0.047
0.532	-4.316	-0.080
0.5325	-4.316	-0.110
0.533	-4.316	-0.121
0.5335	-4.316	-0.132
0.534	-4.316	-0.162
0.5345	-4.316	-0.185
0.535	-4.316	-0.202
0.5355	-4.316	-0.204
0.536	-4.316	-0.165
0.5365	-4.316	-0.141
0.537	-4.316	-0.133
0.5375	-4.316	-0.137
0.538	-4.316	-0.140
0.5385	-4.316	-0.110
0.539	-4.316	-0.077
0.5395	-4.316	-0.048
0.54	-4.316	-0.018
0.5405	-4.316	0.031
0.541	-4.316	0.089
0.5415	-4.316	0.115
0.542	-4.316	0.116
0.5425	-4.316	0.129
0.543	-4.316	0.144
0.5435	-4.316	0.127
0.544	-4.316	0.119
0.5445	-4.316	0.121
0.545	-4.316	0.107
0.5455	-4.316	0.113
0.546	-4.316	0.107
0.5465	-4.316	0.065
0.547	-4.316	0.028
0.5475	-4.316	-0.001
0.548	-4.316	-0.014
0.5485	-4.316	-0.043
0.549	-4.316	-0.068
0.5495	-4.316	-0.096
0.55	-4.316	-0.118
0.5505	-4.316	-0.164
0.551	-4.316	-0.184
0.5515	-4.316	-0.216
0.552	-4.316	-0.216
0.5525	-4.316	-0.212
0.553	-4.316	-0.195
0.5535	-4.316	-0.208
0.554	-4.316	-0.195
0.5545	-4.316	-0.176
0.555	-4.316	-0.122
0.5555	-4.316	-0.066
0.556	-4.316	-0.031
0.5565	-4.316	-0.023
0.557	-4.316	0.013
0.5575	-4.316	0.042
0.558	-4.316	0.078
0.5585	-4.316	0.105
0.559	-4.316	0.123
0.5595	-4.316	0.148
0.56	-4.316	0.158
0.5605	-4.316	0.137
0.561	-4.316	0.122
0.5615	-4.316	0.123
0.562	-4.316	0.128
0.5625	-4.316	0.126
0.563	-4.316	0.097
0.5635	-4.316	0.039
0.564	-4.316	-0.001
0.5645	-4.316	-0.016
0.565	-4.316	-0.036
0.5655	-4.316	-0.067
0.566	-4.316	-0.093
0.5665	-4.316	-0.101
0.567	-4.316	-0.121
0.5675	-4.316	-0.149
0.568	-4.317	-0.194
0.5685	-4.317	-0.214
0.569	-4.317	-0.220
0.5695	-4.317	-0.221
0.57	-4.317	-0.198
0.5705	-4.317	-0.184
0.571	-4.317	-0.167
0.5715	-4.317	-0.132
0.572	-4.317	-0.078
0.5725	-4.317	-0.029
0.573	-4.317	0.002
0.5735	-4.317	0.031
0.574	-4.317	0.056
0.5745	-4.317	0.092
0.575	-4.317	0.106
0.5755	-4.317	0.115
0.576	-4.317	0.131
0.5765	-4.317	0.144
0.577	-4.317	0.134
0.5775	-4.317	0.137
0.578	-4.317	0.128
0.5785	-4.317	0.118
0.579	-4.317	0.120
0.5795	-4.317	0.092
0.58	-4.317	0.073
0.5805	-4.317	0.022
0.581	-4.317	0.003
0.5815	-4.317	-0.031
0.582	-4.317	-0.054
0.5825	-4.317	-0.089
0.583	-4.317	-0.114
0.5835	-4.317	-0.132
0.584	-4.317	-0.171
0.5845	-4.317	-0.194
0.585	-4.317	-0.210
0.5855	-4.317	-0.204
0.586	-4.317	-0.194
0.5865	-4.317	-0.188
0.587	-4.317	-0.178
0.5875	-4.317	-0.172
0.588	-4.317	-0.149
0.5885	-4.317	-0.106
0.589	-4.317	-0.064
0.5895	-4.317	-0.039
0.59	-4.317	-0.014
0.5905	-4.317	0.017
0.591	-4.317	0.048
0.5915	-4.317	0.088
0.592	-4.317	0.114
0.5925	-4.317	0.123
0.593	-4.317	0.142
0.5935	-4.317	0.135
0.594	-4.317	0.115
0.5945	-4.317	0.108
0.595	-4.317	0.113
0.5955	-4.317	0.112
0.596	-4.317	0.117
0.5965	-4.317	0.106
0.597	-4.317	0.057
0.5975	-4.317	-0.003
0.598	-4.317	-0.033
0.5985	-4.317	-0.050
0.599	-4.317	-0.090
0.5995	-4.317	-0.128
0.6	-4.317	-0.140
0.6005	-4.317	-0.177
0.601	-4.317	-0.179
0.6015	-4.317	-0.192
0.602	-4.317	-0.203
0.6025	-4.317	-0.195
0.603	-4.317	-0.185
0.6035	-4.317	-0.172
0.604	-4.317	-0.163
0.6045	-4.317	-0.132
0.605	-4.317	-0.099
0.6055	-4.317	-0.071
0.606	-4.317	-0.030
0.6065	-4.317	0.012
0.607	-4.317	0.044
0.6075	-4.317	0.073
0.608	-4.317	0.115
0.6085	-4.317	0.124
0.609	-4.317	0.149
0.6095	-4.317	0.148
0.61	-4.317	0.136
0.6105	-4.317	0.110
0.611	-4.317	0.105
0.6115	-4.317	0.103
0.612	-4.316	0.116
0.6125	-4.316	0.131
0.613	-4.316	0.110
0.6135	-4.316	0.072
0.614	-4.316	0.009
0.6145	-4.316	-0.015
0.615	-4.316	-0.048
0.6155	-4.316	-0.070
0.616	-4.316	-0.106
0.6165	-4.316	-0.130
0.617	-4.316	-0.173
0.6175	-4.316	-0.186
0.618	-4.316	-0.213
0.6185	-4.316	-0.212
0.619	-4.316	-0.188
0.6195	-4.316	-0.166
0.62	-4.316	-0.165
0.6205	-4.316	-0.171
0.621	-4.316	-0.157
0.6215	-4.316	-0.138
0.622	-4.316	-0.108
0.6225	-4.316	-0.058
0.623	-4.316	-0.024
0.6235	-4.316	0.008
0.624	-4.316	0.044
0.6245	-4.316	0.089
0.625	-4.316	0.107
0.6255	-4.316	0.127
0.626	-4.316	0.153
0.6265	-4.316	0.167
0.627	-4.316	0.136
0.6275	-4.316	0.147
0.628	-4.316	0.145
0.6285	-4.316	0.129
0.629	-4.316	0.117
0.6295	-4.316	0.105
0.63	-4.316	0.071
0.6305	-4.316	0.019
0.631	-4.316	-0.007
0.6315	-4.316	-0.043
0.632	-4.316	-0.079
0.6325	-4.316	-0.099
0.633	-4.316	-0.122
0.6335	-4.316	-0.128
0.634	-4.316	-0.166
0.6345	-4.316	-0.184
0.635	-4.316	-0.226
0.6355	-4.316	-0.237
0.636	-4.316	-0.202
0.6365	-4.316	-0.184
0.637	-4.316	-0.188
0.6375	-4.316	-0.168
0.638	-4.316	-0.157
0.6385	-4.316	-0.096
0.639	-4.316	-0.058
0.6395	-4.316	-0.028
0.64	-4.316	-0.015
0.6405	-4.316	0.022
0.641	-4.316	0.063
0.6415	-4.316	0.088
0.642	-4.316	0.130
0.6425	-4.316	0.146
0.643	-4.316	0.164
0.6435	-4.316	0.156
0.644	-4.316	0.140
0.6445	-4.316	0.133
0.645	-4.316	0.123
0.6455	-4.316	0.121
0.646	-4.316	0.111
0.6465	-4.316	0.082
0.647	-4.316	0.044
0.6475	-4.316	-0.001
0.648	-4.316	-0.016
0.6485	-4.316	-0.050
0.649	-4.316	-0.063
0.6495	-4.316	-0.106
0.65	-4.316	-0.110
0.6505	-4.316	-0.154
0.651	-4.316	-0.163
0.6515	-4.316	-0.194
0.652	-4.316	-0.183
0.6525	-4.316	-0.181
0.653	-4.316	-0.185
0.6535	-4.316	-0.180
0.654	-4.316	-0.175
0.6545	-4.316	-0.174
0.655	-4.316	-0.133
0.6555	-4.316	-0.087
0.656	-4.316	-0.057
0.6565	-4.316	-0.032
0.657	-4.316	0.004
0.6575	-4.316	0.052
0.658	-4.316	0.087
0.6585	-4.316	0.111
0.659	-4.316	0.124
0.6595	-4.316	0.147
0.66	-4.316	0.154
0.6605	-4.316	0.134
0.661	-4.316	0.134
0.6615	-4.316	0.137
0.662	-4.316	0.128
0.6625	-4.316	0.119
0.663	-4.316	0.094
0.6635	-4.316	0.068
0.664	-4.316	0.024
0.6645	-4.316	-0.012
0.665	-4.316	-0.041
0.6655	-4.316	-0.073
0.666	-4.316	-0.112
0.6665	-4.316	-0.116
0.667	-4.316	-0.136
0.6675	-4.316	-0.173
0.668	-4.316	-0.196
0.6685	-4.316	-0.216
0.669	-4.316	-0.206
0.6695	-4.316	-0.183
0.67	-4.316	-0.164
0.6705	-4.316	-0.171
0.671	-4.316	-0.170
0.6715	-4.316	-0.141
0.672	-4.316	-0.092
0.6725	-4.316	-0.050
0.673	-4.316	-0.020
0.6735	-4.316	0.004
0.674	-4.316	0.039
0.6745	-4.316	0.078
0.675	-4.316	0.114
0.6755	-4.316	0.133
0.676	-4.316	0.137
0.6765	-4.316	0.171
0.677	-4.316	0.146
0.6775	-4.316	0.129
0.678	-4.316	0.124
0.6785	-4.316	0.118
0.679	-4.316	0.109
0.6795	-4.316	0.105
0.68	-4.316	0.062
0.6805	-4.316	0.016
0.681	-4.316	-0.007
0.6815	-4.316	-0.012
0.682	-4.316	-0.035
0.6825	-4.316	-0.060
0.683	-4.316	-0.083
0.6835	-4.316	-0.100
0.684	-4.316	-0.148
0.6845	-4.316	-0.182
0.685	-4.316	-0.227
0.6855	-4.316	-0.242
0.686	-4.316	-0.217
0.6865	-4.316	-0.189
0.687	-4.316	-0.173
0.6875	-4.316	-0.163
0.688	-4.316	-0.142
0.6885	-4.316	-0.100
0.689	-4.316	-0.073
0.6895	-4.316	-0.038
0.69	-4.316	-0.006
0.6905	-4.316	0.037
0.691	-4.316	0.074
0.6915	-4.316	0.104
0.692	-4.316	0.095
0.6925	-4.316	0.127
0.693	-4.316	0.166
0.6935	-4.316	0.163
0.694	-4.316	0.148
0.6945	-4.316	0.144
0.695	-4.316	0.124
0.6955	-4.316	0.122
0.696	-4.316	0.112
0.6965	-4.316	0.084
0.697	-4.316	0.053
0.6975	-4.316	0.000
0.698	-4.316	-0.025
0.6985	-4.316	-0.056
0.699	-4.316	-0.078
0.6995	-4.316	-0.102
0.7	-4.316	-0.116
0.7005	-4.316	-0.170
0.701	-4.316	-0.194
0.7015	-4.316	-0.225
0.702	-4.316	-0.234
0.7025	-4.316	-0.212
0.703	-4.316	-0.184
0.7035	-4.316	-0.188
0.704	-4.316	-0.170
0.7045	-4.316	-0.155
0.705	-4.316	-0.114
0.7055	-4.316	-0.076
0.706	-4.316	-0.044
0.7065	-4.316	-0.028
0.707	-4.316	-0.008
0.7075	-4.316	0.024
0.708	-4.316	0.071
0.7085	-4.316	0.103
0.709	-4.316	0.112
0.7095	-4.316	0.134
0.71	-4.316	0.147
0.7105	-4.316	0.132
0.711	-4.316	0.134
0.7115	-4.316	0.138
0.712	-4.316	0.138
0.7125	-4.316	0.139
0.713	-4.316	0.119
0.7135	-4.316	0.080
0.714	-4.316	0.039
0.7145	-4.316	0.004
0.715	-4.316	-0.023
0.7155	-4.316	-0.054
0.716	-4.316	-0.086
0.7165	-4.316	-0.097
0.717	-4.316	-0.120
0.7175	-4.316	-0.141
0.718	-4.316	-0.185
0.7185	-4.316	-0.201
0.719	-4.316	-0.203
0.7195	-4.316	-0.193
0.72	-4.316	-0.186
0.7205	-4.316	-0.192
0.721	-4.316	-0.168
0.7215	-4.316	-0.128
0.722	-4.316	-0.079
0.7225	-4.316	-0.040
0.723	-4.316	-0.013
0.7235	-4.316	-0.002
0.724	-4.316	0.025
0.7245	-4.314	0.063
0.725	-4.314	0.087
0.7255	-4.314	0.124
0.726	-4.314	0.132
0.7265	-4.314	0.138
0.727	-4.314	0.115
0.7275	-4.314	0.136
0.728	-4.314	0.133
0.7285	-4.314	0.133
0.729	-4.314	0.124
0.7295	-4.314	0.125
0.73	-4.314	0.085
0.7305	-4.314	0.039
0.731	-4.314	0.007
0.7315	-4.314	-0.018
0.732	-4.314	-0.058
0.7325	-4.314	-0.090
0.733	-4.314	-0.120
0.7335	-4.314	-0.140
0.734	-4.314	-0.175
0.7345	-4.314	-0.191
0.735	-4.314	-0.212
0.7355	-4.314	-0.205
0.736	-4.314	-0.198
0.7365	-4.314	-0.198
0.737	-4.314	-0.192
0.7375	-4.314	-0.169
0.738	-4.314	-0.145
0.7385	-4.314	-0.097
0.739	-4.314	-0.057
0.7395	-4.314	-0.028
0.74	-4.314	0.001
0.7405	-4.314	0.030
0.741	-4.314	0.068
0.7415	-4.314	0.101
0.742	-4.314	0.127
0.7425	-4.314	0.148
0.743	-4.314	0.170
0.7435	-4.314	0.149
0.744	-4.314	0.149
0.7445	-4.314	0.142
0.745	-4.314	0.148
0.7455	-4.314	0.148
0.746	-4.314	0.127
0.7465	-4.314	0.088
0.747	-4.314	0.051
0.7475	-4.314	0.012
0.748	-4.314	-0.002
0.7485	-4.314	-0.030
0.749	-4.314	-0.074
0.7495	-4.314	-0.125
0.75	-4.314	-0.123
0.7505	-4.314	-0.173
0.751	-4.314	-0.196
0.7515	-4.314	-0.212
0.752	-4.314	-0.196
0.7525	-4.314	-0.191
0.753	-4.314	-0.194
0.7535	-4.314	-0.184
0.754	-4.314	-0.170
0.7545	-4.314	-0.164
0.755	-4.314	-0.135
0.7555	-4.314	-0.096
0.756	-4.314	-0.064
0.7565	-4.314	-0.044
0.757	-4.314	-0.002
0.7575	-4.314	0.036
0.758	-4.314	0.075
0.7585	-4.314	0.103
0.759	-4.314	0.132
0.7595	-4.314	0.141
0.76	-4.314	0.163
0.7605	-4.314	0.133
0.761	-4.314	0.119
0.7615	-4.314	0.123
0.762	-4.314	0.128
0.7625	-4.314	0.107
0.763	-4.314	0.090
0.7635	-4.314	0.057
0.764	-4.314	0.009
0.7645	-4.314	-0.021
0.765	-4.314	-0.045
0.7655	-4.314	-0.083
0.766	-4.314	-0.107
0.7665	-4.314	-0.120
0.767	-4.314	-0.163
0.7675	-4.314	-0.194
0.768	-4.314	-0.224
0.7685	-4.314	-0.229
0.769	-4.314	-0.204
0.7695	-4.314	-0.163
0.77	-4.314	-0.125
0.7705	-4.314	-0.129
0.771	-4.314	-0.128
0.7715	-4.314	-0.114
0.772	-4.314	-0.086
0.7725	-4.314	-0.072
0.773	-4.314	-0.047
0.7735	-4.314	-0.023
0.774	-4.314	0.028
0.7745	-4.314	0.085
0.775	-4.314	0.120
0.7755	-4.314	0.138
0.776	-4.314	0.146
0.7765	-4.314	0.177
0.777	-4.314	0.153
0.7775	-4.314	0.134
0.778	-4.314	0.135
0.7785	-4.314	0.135
0.779	-4.314	0.122
0.7795	-4.314	0.105
0.78	-4.314	0.086
0.7805	-4.314	0.041
0.781	-4.314	-0.020
0.7815	-4.314	-0.032
0.782	-4.314	-0.069
0.7825	-4.314	-0.094
0.783	-4.314	-0.112
0.7835	-4.314	-0.132
0.784	-4.314	-0.171
0.7845	-4.314	-0.169
0.785	-4.314	-0.191
0.7855	-4.314	-0.208
0.786	-4.314	-0.183
0.7865	-4.314	-0.179
0.787	-4.314	-0.173
0.7875	-4.314	-0.156
0.788	-4.314	-0.136
0.7885	-4.314	-0.101
0.789	-4.314	-0.068
0.7895	-4.314	-0.027
0.79	-4.314	-0.013
0.7905	-4.314	0.015
0.791	-4.314	0.055
0.7915	-4.314	0.088
0.792	-4.314	0.123
0.7925	-4.314	0.136
0.793	-4.314	0.158
0.7935	-4.314	0.133
0.794	-4.314	0.130
0.7945	-4.314	0.124
0.795	-4.314	0.131
0.7955	-4.314	0.114
0.796	-4.314	0.115
0.7965	-4.314	0.078
0.797	-4.314	0.042
0.7975	-4.314	-0.009
0.798	-4.314	-0.047
0.7985	-4.314	-0.090
0.799	-4.314	-0.115
0.7995	-4.314	-0.100
0.8	-4.314	-0.084
0.8005	-4.314	-0.110
0.801	-4.314	-0.151
0.8015	-4.314	-0.201
0.802	-4.314	-0.211
0.8025	-4.314	-0.197
0.803	-4.314	-0.187
0.8035	-4.314	-0.181
0.804	-4.314	-0.165
0.8045	-4.314	-0.128
0.805	-4.314	-0.109
0.8055	-4.314	-0.073
0.806	-4.314	-0.050
0.8065	-4.314	-0.031
0.807	-4.314	-0.011
0.8075	-4.314	0.032
0.808	-4.314	0.066
0.8085	-4.314	0.084
0.809	-4.314	0.101
0.8095	-4.314	0.129
0.81	-4.314	0.154
0.8105	-4.314	0.140
0.811	-4.314	0.136
0.8115	-4.314	0.134
0.812	-4.314	0.141
0.8125	-4.314	0.140
0.813	-4.314	0.112
0.8135	-4.314	0.053
0.814	-4.314	0.005
0.8145	-4.314	-0.024
0.815	-4.314	-0.035
0.8155	-4.314	-0.072
0.816	-4.314	-0.106
0.8165	-4.314	-0.131
0.817	-4.314	-0.150
0.8175	-4.314	-0.159
0.818	-4.314	-0.176
0.8185	-4.314	-0.194
0.819	-4.314	-0.197
0.8195	-4.314	-0.188
0.82	-4.314	-0.176
0.8205	-4.314	-0.183
0.821	-4.314	-0.172
0.8215	-4.314	-0.140
0.822	-4.314	-0.084
0.8225	-4.314	-0.041
0.823	-4.314	-0.017
0.8235	-4.314	0.005
0.824	-4.314	0.051
0.8245	-4.314	0.085
0.825	-4.314	0.094
0.8255	-4.314	0.109
0.826	-4.314	0.125
0.8265	-4.314	0.163
0.827	-4.314	0.153
0.8275	-4.314	0.142
0.828	-4.314	0.129
0.8285	-4.314	0.125
0.829	-4.314	0.116
0.8295	-4.314	0.106
0.83	-4.314	0.073
0.8305	-4.314	0.048
0.831	-4.314	0.016
0.8315	-4.314	-0.016
0.832	-4.314	-0.055
0.8325	-4.314	-0.095
0.833	-4.314	-0.133
0.8335	-4.314	-0.129
0.834	-4.314	-0.162
0.8345	-4.314	-0.191
0.835	-4.314	-0.203
0.8355	-4.314	-0.207
0.836	-4.314	-0.199
0.8365	-4.314	-0.198
0.837	-4.314	-0.195
0.8375	-4.314	-0.185
0.838	-4.314	-0.153
0.8385	-4.314	-0.128
0.839	-4.314	-0.076
0.8395	-4.314	-0.047
0.84	-4.314	-0.023
0.8405	-4.314	0.007
0.841	-4.314	0.057
0.8415	-4.314	0.076
0.842	-4.314	0.107
0.8425	-4.314	0.132
0.843	-4.314	0.163
0.8435	-4.314	0.151
0.844	-4.314	0.139
0.8445	-4.314	0.128
0.845	-4.314	0.120
0.8455	-4.314	0.125
0.846	-4.314	0.115
0.8465	-4.314	0.095
0.847	-4.314	0.063
0.8475	-4.314	0.026
0.848	-4.314	-0.018
0.8485	-4.314	-0.054
0.849	-4.314	-0.077
0.8495	-4.314	-0.105
0.85	-4.314	-0.110
0.8505	-4.314	-0.147
0.851	-4.314	-0.169
0.8515	-4.314	-0.207
0.852	-4.314	-0.197
0.8525	-4.314	-0.188
0.853	-4.314	-0.189
0.8535	-4.314	-0.164
0.854	-4.314	-0.161
0.8545	-4.314	-0.158
0.855	-4.314	-0.133
0.8555	-4.314	-0.085
0.856	-4.314	-0.050
0.8565	-4.314	-0.017
0.857	-4.314	0.021
0.8575	-4.314	0.057
0.858	-4.314	0.090
0.8585	-4.314	0.108
0.859	-4.314	0.121
0.8595	-4.314	0.143
0.86	-4.314	0.160
0.8605	-4.314	0.145
0.861	-4.314	0.151
0.8615	-4.314	0.141
0.862	-4.314	0.130
0.8625	-4.314	0.123
0.863	-4.314	0.099
0.8635	-4.314	0.063
0.864	-4.314	0.016
0.8645	-4.314	-0.023
0.865	-4.314	-0.038
0.8655	-4.314	-0.045
0.866	-4.314	-0.060
0.8665	-4.314	-0.088
0.867	-4.314	-0.107
0.8675	-4.314	-0.146
0.868	-4.314	-0.180
0.8685	-4.314	-0.205
0.869	-4.314	-0.201
0.8695	-4.314	-0.175
0.87	-4.314	-0.161
0.8705	-4.314	-0.168
0.871	-4.314	-0.146
0.8715	-4.314	-0.135
0.872	-4.314	-0.096
0.8725	-4.314	-0.067
0.873	-4.314	-0.036
0.8735	-4.314	-0.014
0.874	-4.314	0.022
0.8745	-4.314	0.082
0.875	-4.314	0.083
0.8755	-4.314	0.104
0.876	-4.314	0.106
0.8765	-4.314	0.140
0.877	-4.314	0.127
0.8775	-4.314	0.130
0.878	-4.314	0.128
0.8785	-4.314	0.126
0.879	-4.314	0.112
0.8795	-4.314	0.120
0.88	-4.314	0.087
0.8805	-4.314	0.050
0.881	-4.314	0.019
0.8815	-4.314	0.005
0.882	-4.314	-0.034
0.8825	-4.314	-0.071
0.883	-4.314	-0.097
0.8835	-4.314	-0.110
0.884	-4.314	-0.157
0.8845	-4.314	-0.180
0.885	-4.314	-0.202
0.8855	-4.314	-0.205
0.886	-4.314	-0.186
0.8865	-4.314	-0.181
0.887	-4.314	-0.173
0.8875	-4.314	-0.171
0.888	-4.314	-0.133
0.8885	-4.314	-0.106
0.889	-4.314	-0.074
0.8895	-4.314	-0.048
0.89	-4.314	-0.007
0.8905	-4.314	0.015
0.891	-4.314	0.070
0.8915	-4.314	0.101
0.892	-4.314	0.096
0.8925	-4.314	0.104
0.893	-4.314	0.122
0.8935	-4.314	0.107
0.894	-4.314	0.109
0.8945	-4.314	0.098
0.895	-4.314	0.099
0.8955	-4.314	0.104
0.896	-4.314	0.092
0.8965	-4.314	0.075
0.897	-4.314	0.040
0.8975	-4.314	0.017
0.898	-4.314	-0.009
0.8985	-4.314	-0.048
0.899	-4.314	-0.081
0.8995	-4.314	-0.111
0.9	-4.314	-0.132
0.9005	-4.314	-0.170
0.901	-4.314	-0.179
0.9015	-4.314	-0.204
0.902	-4.314	-0.210
0.9025	-4.314	-0.190
0.903	-4.314	-0.169
0.9035	-4.314	-0.171
0.904	-4.314	-0.160
0.9045	-4.314	-0.138
0.905	-4.314	-0.108
0.9055	-4.314	-0.063
0.906	-4.314	-0.018
0.9065	-4.314	-0.003
0.907	-4.314	0.032
0.9075	-4.314	0.074
0.908	-4.314	0.119
0.9085	-4.314	0.130
0.909	-4.314	0.146
0.9095	-4.314	0.164
0.91	-4.314	0.178
0.9105	-4.314	0.166
0.911	-4.314	0.155
0.9115	-4.314	0.125
0.912	-4.314	0.106
0.9125	-4.314	0.088
0.913	-4.314	0.037
0.9135	-4.314	0.016
0.914	-4.314	-0.004
0.9145	-4.314	-0.029
0.915	-4.314	-0.046
0.9155	-4.314	-0.085
0.916	-4.314	-0.115
0.9165	-4.314	-0.150
0.917	-4.314	-0.164
0.9175	-4.314	-0.190
0.918	-4.314	-0.223
0.9185	-4.314	-0.240
0.919	-4.314	-0.232
0.9195	-4.314	-0.187
0.92	-4.314	-0.162
0.9205	-4.314	-0.143
0.921	-4.314	-0.142
0.9215	-4.314	-0.135
0.922	-4.314	-0.119
0.9225	-4.314	-0.086
0.923	-4.314	-0.078
0.9235	-4.314	-0.041
0.924	-4.314	-0.000
0.9245	-4.314	0.059
0.925	-4.314	0.090
0.9255	-4.314	0.136
0.926	-4.314	0.142
0.9265	-4.314	0.173
0.927	-4.314	0.176
0.9275	-4.314	0.176
0.928	-4.314	0.154
0.9285	-4.314	0.154
0.929	-4.314	0.144
0.9295	-4.314	0.105
0.93	-4.314	0.066
0.9305	-4.314	0.035
0.931	-4.314	0.019
0.9315	-4.314	0.008
0.932	-4.314	-0.030
0.9325	-4.314	-0.056
0.933	-4.314	-0.085
0.9335	-4.314	-0.114
0.934	-4.314	-0.161
0.9345	-4.314	-0.201
0.935	-4.314	-0.227
0.9355	-4.314	-0.248
0.936	-4.314	-0.235
0.9365	-4.314	-0.219
0.937	-4.314	-0.196
0.9375	-4.314	-0.179
0.938	-4.314	-0.147
0.9385	-4.314	-0.106
0.939	-4.314	-0.066
0.9395	-4.314	-0.041
0.94	-4.314	0.010
0.9405	-4.314	0.041
0.941	-4.314	0.075
0.9415	-4.314	0.086
0.942	-4.314	0.113
0.9425	-4.314	0.128
0.943	-4.314	0.146
0.9435	-4.314	0.145
0.944	-4.314	0.136
0.9445	-4.314	0.133
0.945	-4.314	0.142
0.9455	-4.314	0.135
0.946	-4.314	0.149
0.9465	-4.314	0.130
0.947	-4.314	0.079
0.9475	-4.314	0.001
0.948	-4.314	-0.047
0.9485	-4.314	-0.084
0.949	-4.314	-0.112
0.9495	-4.314	-0.139
0.95	-4.314	-0.148
0.9505	-4.314	-0.193
0.951	-4.314	-0.229
0.9515	-4.314	-0.229
0.952	-4.314	-0.240
0.9525	-4.314	-0.229
0.953	-4.314	-0.218
0.9535	-4.314	-0.184
0.954	-4.314	-0.182
0.9545	-4.314	-0.164
0.955	-4.314	-0.127
0.9555	-4.314	-0.088
0.956	-4.314	-0.048
0.9565	-4.314	-0.019
0.957	-4.314	0.007
0.9575	-4.314	0.032
0.958	-4.314	0.077
0.9585	-4.314	0.104
0.959	-4.314	0.131
0.9595	-4.314	0.149
0.96	-4.314	0.170
0.9605	-4.314	0.155
0.961	-4.314	0.153
0.9615	-4.314	0.153
0.962	-4.314	0.137
0.9625	-4.314	0.130
0.963	-4.314	0.127
0.9635	-4.314	0.075
0.964	-4.314	0.035
0.9645	-4.314	0.000
0.965	-4.314	-0.017
0.9655	-4.314	-0.057
0.966	-4.314	-0.083
0.9665	-4.314	-0.102
0.967	-4.314	-0.135
0.9675	-4.314	-0.163
0.968	-4.314	-0.183
0.9685	-4.314	-0.203
0.969	-4.314	-0.205
0.9695	-4.314	-0.185
0.97	-4.314	-0.185
0.9705	-4.314	-0.175
0.971	-4.314	-0.172
0.9715	-4.314	-0.155
0.972	-4.316	-0.105
0.9725	-4.316	-0.033
0.973	-4.316	0.001
0.9735	-4.316	0.009
0.974	-4.316	0.018
0.9745	-4.316	0.058
0.975	-4.316	0.067
0.9755	-4.316	0.091
0.976	-4.316	0.117
0.9765	-4.316	0.172
0.977	-4.316	0.149
0.9775	-4.316	0.153
0.978	-4.316	0.140
0.9785	-4.316	0.129
0.979	-4.316	0.129
0.9795	-4.316	0.122
0.98	-4.316	0.084
0.9805	-4.316	0.044
0.981	-4.316	0.011
0.9815	-4.316	-0.015
0.982	-4.316	-0.053
0.9825	-4.316	-0.074
0.983	-4.316	-0.102
0.9835	-4.316	-0.121
0.984	-4.316	-0.153
0.9845	-4.316	-0.198
0.985	-4.316	-0.218
0.9855	-4.316	-0.215
0.986	-4.316	-0.174
0.9865	-4.316	-0.173
0.987	-4.316	-0.166
0.9875	-4.316	-0.164
0.988	-4.316	-0.154
0.9885	-4.316	-0.122
0.989	-4.316	-0.079
0.9895	-4.316	-0.035
0.99	-4.316	-0.007
0.9905	-4.316	0.022
0.991	-4.316	0.065
0.9915	-4.316	0.088
0.992	-4.316	0.106
0.9925	-4.316	0.127
0.993	-4.316	0.143
0.9935	-4.316	0.151
0.994	-4.316	0.158
0.9945	-4.316	0.144
0.995	-4.316	0.130
0.9955	-4.316	0.108
0.996	-4.316	0.095
0.9965	-4.316	0.080
0.997	-4.316	0.045
0.9975	-4.316	0.005
0.998	-4.316	-0.019
0.9985	-4.316	-0.031
0.999	-4.316	-0.060
0.9995	-4.316	-0.088
1.0	-4.316	-0.118
1.0005	-4.316	-0.139
1.001	-4.316	-0.144
1.0015	-4.316	-0.165
1.002	-4.316	-0.165
1.0025	-4.316	-0.167
1.003	-4.316	-0.173
1.0035	-4.316	-0.202
1.004	-4.316	-0.192
1.0045	-4.316	-0.159
1.005	-4.316	-0.130
1.0055	-4.316	-0.068
1.006	-4.316	-0.030
1.0065	-4.316	-0.018
1.007	-4.316	0.014
1.0075	-4.316	0.030
1.008	-4.316	0.074
1.0085	-4.316	0.094
1.009	-4.316	0.123
1.0095	-4.316	0.129
1.01	-4.316	0.152
1.0105	-4.316	0.124
1.011	-4.316	0.130
1.0115	-4.316	0.111
1.012	-4.316	0.115
1.0125	-4.316	0.113
1.013	-4.316	0.102
1.0135	-4.316	0.073
1.014	-4.316	0.038
1.0145	-4.316	0.008
1.015	-4.316	-0.017
1.0155	-4.316	-0.039
1.016	-4.316	-0.055
1.0165	-4.316	-0.076
1.017	-4.316	-0.112
1.0175	-4.316	-0.160
1.018	-4.316	-0.195
1.0185	-4.316	-0.211
1.019	-4.316	-0.220
1.0195	-4.316	-0.191
1.02	-4.316	-0.185
1.0205	-4.316	-0.170
1.021	-4.316	-0.137
1.0215	-4.316	-0.101
1.022	-4.316	-0.081
1.0225	-4.316	-0.060
1.023	-4.316	-0.065
1.0235	-4.316	-0.035
1.024	-4.316	-0.003
1.0245	-4.316	0.059
1.025	-4.316	0.078
1.0255	-4.316	0.103
1.026	-4.316	0.116
1.0265	-4.316	0.137
1.027	-4.316	0.124
1.0275	-4.316	0.121
1.028	-4.316	0.112
1.0285	-4.316	0.124
1.029	-4.316	0.117
1.0295	-4.316	0.108
1.03	-4.316	0.093
1.0305	-4.316	0.057
1.031	-4.316	0.022
1.0315	-4.316	-0.003
1.032	-4.316	-0.026
1.0325	-4.316	-0.063
1.033	-4.316	-0.088
1.0335	-4.316	-0.120
1.034	-4.316	-0.155
1.0345	-4.316	-0.204
1.035	-4.316	-0.222
1.0355	-4.316	-0.226
1.036	-4.316	-0.205
1.0365	-4.316	-0.183
1.037	-4.316	-0.157
1.0375	-4.316	-0.156
1.038	-4.316	-0.138
1.0385	-4.316	-0.101
1.039	-4.316	-0.064
1.0395	-4.316	-0.041
1.04	-4.316	-0.022
1.0405	-4.316	-0.000
1.041	-4.316	0.045
1.0415	-4.316	0.080
1.042	-4.316	0.105
1.0425	-4.316	0.124
1.043	-4.316	0.138
1.0435	-4.316	0.140
1.044	-4.316	0.116
1.0445	-4.316	0.101
1.045	-4.316	0.098
1.0455	-4.316	0.127
1.046	-4.316	0.114
1.0465	-4.316	0.102
1.047	-4.316	0.055
1.0475	-4.316	0.014
1.048	-4.316	-0.015
1.0485	-4.316	-0.043
1.049	-4.316	-0.089
1.0495	-4.316	-0.095
1.05	-4.316	-0.088
1.0505	-4.316	-0.138
1.051	-4.316	-0.173
1.0515	-4.316	-0.200
1.052	-4.316	-0.213
1.0525	-4.316	-0.206
1.053	-4.316	-0.194
1.0535	-4.316	-0.187
1.054	-4.316	-0.182
1.0545	-4.316	-0.161
1.055	-4.316	-0.137
1.0555	-4.316	-0.100
1.056	-4.316	-0.064
1.0565	-4.316	-0.033
1.057	-4.316	0.017
1.0575	-4.316	0.037
1.058	-4.316	0.096
1.0585	-4.316	0.115
1.059	-4.316	0.136
1.0595	-4.316	0.166
1.06	-4.316	0.187
1.0605	-4.316	0.146
1.061	-4.316	0.140
1.0615	-4.316	0.134
1.062	-4.316	0.128
1.0625	-4.316	0.125
1.063	-4.316	0.106
1.0635	-4.316	0.074
1.064	-4.316	0.033
1.0645	-4.316	0.006
1.065	-4.316	-0.024
1.0655	-4.316	-0.068
1.066	-4.316	-0.090
1.0665	-4.316	-0.108
1.067	-4.316	-0.145
1.0675	-4.316	-0.167
1.068	-4.316	-0.197
1.0685	-4.316	-0.203
1.069	-4.316	-0.223
1.0695	-4.316	-0.194
1.07	-4.316	-0.193
1.0705	-4.316	-0.176
1.071	-4.316	-0.165
1.0715	-4.316	-0.121
1.072	-4.316	-0.088
1.0725	-4.316	-0.055
1.073	-4.316	-0.030
1.0735	-4.316	-0.005
1.074	-4.316	0.027
1.0745	-4.316	0.065
1.075	-4.316	0.076
1.0755	-4.316	0.093
1.076	-4.316	0.114
1.0765	-4.316	0.140
1.077	-4.316	0.131
1.0775	-4.316	0.143
1.078	-4.316	0.149
1.0785	-4.316	0.159
1.079	-4.316	0.146
1.0795	-4.316	0.115
1.08	-4.316	0.076
1.0805	-4.316	0.026
1.081	-4.316	-0.001
1.0815	-4.316	-0.028
1.082	-4.316	-0.054
1.0825	-4.316	-0.091
1.083	-4.316	-0.113
1.0835	-4.316	-0.134
1.084	-4.316	-0.164
1.0845	-4.316	-0.188
1.085	-4.316	-0.223
1.0855	-4.316	-0.238
1.086	-4.316	-0.205
1.0865	-4.316	-0.193
1.087	-4.316	-0.172
1.0875	-4.316	-0.172
1.088	-4.316	-0.151
1.0885	-4.316	-0.108
1.089	-4.316	-0.068
1.0895	-4.316	-0.035
1.09	-4.316	-0.006
1.0905	-4.316	0.020
1.091	-4.316	0.058
1.0915	-4.316	0.096
1.092	-4.316	0.108
1.0925	-4.316	0.122
1.093	-4.316	0.149
1.0935	-4.316	0.138
1.094	-4.316	0.125
1.0945	-4.316	0.123
1.095	-4.316	0.117
1.0955	-4.316	0.135
1.096	-4.316	0.125
1.0965	-4.316	0.090
1.097	-4.316	0.058
1.0975	-4.316	0.012
1.098	-4.316	-0.014
1.0985	-4.316	-0.041
1.099	-4.316	-0.069
1.0995	-4.316	-0.101
1.1	-4.316	-0.119
1.1005	-4.316	-0.159
1.101	-4.316	-0.187
1.1015	-4.316	-0.205
1.102	-4.316	-0.211
1.1025	-4.316	-0.193
1.103	-4.316	-0.176
1.1035	-4.316	-0.176
1.104	-4.316	-0.175
1.1045	-4.316	-0.172
1.105	-4.316	-0.133
1.1055	-4.316	-0.071
1.106	-4.316	-0.023
1.1065	-4.316	-0.006
1.107	-4.316	0.026
1.1075	-4.316	0.043
1.108	-4.316	0.068
1.1085	-4.316	0.089
1.109	-4.316	0.116
1.1095	-4.316	0.133
1.11	-4.316	0.151
1.1105	-4.316	0.138
1.111	-4.316	0.145
1.1115	-4.316	0.153
1.112	-4.316	0.139
1.1125	-4.316	0.108
1.113	-4.316	0.089
1.1135	-4.316	0.062
1.114	-4.316	0.024
1.1145	-4.316	-0.003
1.115	-4.316	-0.028
1.1155	-4.316	-0.060
1.116	-4.316	-0.086
1.1165	-4.316	-0.104
1.117	-4.316	-0.134
1.1175	-4.316	-0.162
1.118	-4.316	-0.184
1.1185	-4.316	-0.177
1.119	-4.316	-0.185
1.1195	-4.316	-0.168
1.12	-4.316	-0.180
1.1205	-4.316	-0.193
1.121	-4.316	-0.188
1.1215	-4.316	-0.157
1.122	-4.316	-0.110
1.1225	-4.316	-0.054
1.123	-4.316	-0.025
1.1235	-4.316	0.001
1.124	-4.316	0.045
1.1245	-4.316	0.079
1.125	-4.316	0.094
1.1255	-4.316	0.121
1.126	-4.316	0.147
1.1265	-4.316	0.171
1.127	-4.316	0.162
1.1275	-4.316	0.136
1.128	-4.316	0.118
1.1285	-4.316	0.110
1.129	-4.316	0.114
1.1295	-4.316	0.099
1.13	-4.316	0.088
1.1305	-4.316	0.027
1.131	-4.316	-0.016
1.1315	-4.316	-0.031
1.132	-4.316	-0.054
1.1325	-4.316	-0.091
1.133	-4.316	-0.113
1.1335	-4.316	-0.138
1.134	-4.316	-0.168
1.1345	-4.316	-0.177
1.135	-4.316	-0.191
1.1355	-4.316	-0.199
1.136	-4.316	-0.184
1.1365	-4.316	-0.183
1.137	-4.316	-0.180
1.1375	-4.316	-0.184
1.138	-4.316	-0.169
1.1385	-4.316	-0.107
1.139	-4.316	-0.046
1.1395	-4.316	-0.006
1.14	-4.316	0.008
1.1405	-4.316	0.023
1.141	-4.316	0.043
1.1415	-4.316	0.093
1.142	-4.316	0.109
1.1425	-4.316	0.114
1.143	-4.316	0.144
1.1435	-4.316	0.143
1.144	-4.316	0.127
1.1445	-4.316	0.134
1.145	-4.316	0.118
1.1455	-4.316	0.114
1.146	-4.316	0.105
1.1465	-4.316	0.084
1.147	-4.316	0.041
1.1475	-4.316	0.007
1.148	-4.316	-0.018
1.1485	-4.316	-0.024
1.149	-4.316	-0.040
1.1495	-4.316	-0.068
1.15	-4.316	-0.105
1.1505	-4.316	-0.158
1.151	-4.316	-0.187
1.1515	-4.316	-0.202
1.152	-4.316	-0.211
1.1525	-4.316	-0.191
1.153	-4.316	-0.169
1.1535	-4.316	-0.184
1.154	-4.316	-0.178
1.1545	-4.316	-0.153
1.155	-4.316	-0.117
1.1555	-4.316	-0.090
1.156	-4.316	-0.052
1.1565	-4.316	-0.026
1.157	-4.316	0.002
1.1575	-4.316	0.029
1.158	-4.316	0.070
1.1585	-4.316	0.084
1.159	-4.316	0.100
1.1595	-4.316	0.129
1.16	-4.316	0.135
1.1605	-4.316	0.117
1.161	-4.316	0.117
1.1615	-4.316	0.122
1.162	-4.316	0.108
1.1625	-4.316	0.103
1.163	-4.316	0.087
1.1635	-4.316	0.049
1.164	-4.316	0.004
1.1645	-4.316	-0.008
1.165	-4.316	-0.029
1.1655	-4.316	-0.061
1.166	-4.316	-0.086
1.1665	-4.316	-0.106
1.167	-4.316	-0.141
1.1675	-4.316	-0.158
1.168	-4.316	-0.180
1.1685	-4.316	-0.204
1.169	-4.316	-0.198
1.1695	-4.316	-0.186
1.17	-4.316	-0.180
1.1705	-4.316	-0.182
1.171	-4.316	-0.176
1.1715	-4.316	-0.149
1.172	-4.316	-0.109
1.1725	-4.316	-0.054
1.173	-4.316	-0.039
1.1735	-4.316	-0.011
1.174	-4.316	0.012
1.1745	-4.316	0.055
1.175	-4.316	0.081
1.1755	-4.316	0.110
1.176	-4.316	0.138
1.1765	-4.316	0.171
1.177	-4.316	0.151
1.1775	-4.316	0.138
1.178	-4.316	0.126
1.1785	-4.316	0.123
1.179	-4.316	0.131
1.1795	-4.316	0.118
1.18	-4.316	0.078
1.1805	-4.316	0.037
1.181	-4.316	0.000
1.1815	-4.316	-0.041
1.182	-4.316	-0.063
1.1825	-4.316	-0.076
1.183	-4.316	-0.095
1.1835	-4.316	-0.111
1.184	-4.316	-0.155
1.1845	-4.316	-0.189
1.185	-4.316	-0.200
1.1855	-4.316	-0.207
1.186	-4.316	-0.173
1.1865	-4.316	-0.172
1.187	-4.316	-0.180
1.1875	-4.316	-0.188
1.188	-4.316	-0.172
1.1885	-4.316	-0.132
1.189	-4.316	-0.090
1.1895	-4.316	-0.039
1.19	-4.316	-0.017
1.1905	-4.316	0.026
1.191	-4.316	0.068
1.1915	-4.316	0.107
1.192	-4.316	0.121
1.1925	-4.316	0.130
1.193	-4.316	0.132
1.1935	-4.316	0.138
1.194	-4.316	0.140
1.1945	-4.316	0.144
1.195	-4.316	0.145
1.1955	-4.316	0.136
1.196	-4.316	0.129
1.1965	-4.316	0.100
1.197	-4.316	0.052
1.1975	-4.316	0.005
1.198	-4.316	-0.019
1.1985	-4.316	-0.022
1.199	-4.316	-0.056
1.1995	-4.316	-0.104
1.2	-4.316	-0.114
1.2005	-4.316	-0.153
1.201	-4.316	-0.177
1.2015	-4.316	-0.212
1.202	-4.316	-0.206
1.2025	-4.316	-0.212
1.203	-4.316	-0.195
1.2035	-4.316	-0.182
1.204	-4.316	-0.168
1.2045	-4.316	-0.160
1.205	-4.316	-0.123
1.2055	-4.316	-0.095
1.206	-4.316	-0.065
1.2065	-4.316	-0.029
1.207	-4.316	0.008
1.2075	-4.316	0.055
1.208	-4.316	0.098
1.2085	-4.316	0.108
1.209	-4.316	0.112
1.2095	-4.316	0.132
1.21	-4.316	0.170
1.2105	-4.316	0.141
1.211	-4.316	0.121
1.2115	-4.316	0.114
1.212	-4.316	0.113
1.2125	-4.316	0.125
1.213	-4.316	0.113
1.2135	-4.316	0.095
1.214	-4.316	0.038
1.2145	-4.316	0.009
1.215	-4.316	-0.015
1.2155	-4.316	-0.050
1.216	-4.316	-0.110
1.2165	-4.316	-0.131
1.217	-4.316	-0.155
1.2175	-4.316	-0.173
1.218	-4.316	-0.169
1.2185	-4.316	-0.192
1.219	-4.316	-0.206
1.2195	-4.316	-0.187
1.22	-4.316	-0.190
1.2205	-4.316	-0.186
1.221	-4.316	-0.183
1.2215	-4.316	-0.147
1.222	-4.316	-0.104
1.2225	-4.316	-0.071
1.223	-4.316	-0.040
1.2235	-4.316	-0.012
1.224	-4.316	0.026
1.2245	-4.316	0.057
1.225	-4.316	0.095
1.2255	-4.316	0.127
1.226	-4.316	0.143
1.2265	-4.316	0.167
1.227	-4.316	0.156
1.2275	-4.316	0.134
1.228	-4.316	0.137
1.2285	-4.316	0.126
1.229	-4.316	0.110
1.2295	-4.316	0.093
1.23	-4.316	0.070
1.2305	-4.316	0.035
1.231	-4.316	-0.000
1.2315	-4.316	-0.016
1.232	-4.316	-0.048
1.2325	-4.316	-0.088
1.233	-4.316	-0.120
1.2335	-4.316	-0.128
1.234	-4.316	-0.177
1.2345	-4.316	-0.202
1.235	-4.316	-0.219
1.2355	-4.316	-0.231
1.236	-4.316	-0.206
1.2365	-4.316	-0.183
1.237	-4.316	-0.183
1.2375	-4.316	-0.177
1.238	-4.316	-0.162
1.2385	-4.316	-0.114
1.239	-4.316	-0.073
1.2395	-4.316	-0.029
1.24	-4.316	0.011
1.2405	-4.316	0.031
1.241	-4.316	0.066
1.2415	-4.316	0.101
1.242	-4.316	0.120
1.2425	-4.316	0.143
1.243	-4.316	0.153
1.2435	-4.316	0.152
1.244	-4.314	0.136
1.2445	-4.314	0.132
1.245	-4.314	0.132
1.2455	-4.314	0.137
1.246	-4.314	0.129
1.2465	-4.314	0.098
1.247	-4.314	0.055
1.2475	-4.314	0.005
1.248	-4.314	-0.011
1.2485	-4.314	-0.041
1.249	-4.314	-0.065
1.2495	-4.314	-0.100
1.25	-4.314	-0.111
1.2505	-4.314	-0.155
1.251	-4.314	-0.163
1.2515	-4.314	-0.199
1.252	-4.314	-0.203
1.2525	-4.314	-0.203
1.253	-4.314	-0.190
1.2535	-4.314	-0.191
1.254	-4.314	-0.180
1.2545	-4.314	-0.152
1.255	-4.314	-0.123
1.2555	-4.314	-0.070
1.256	-4.314	-0.037
1.2565	-4.314	-0.018
1.257	-4.314	0.003
1.2575	-4.314	0.034
1.258	-4.314	0.077
1.2585	-4.314	0.091
1.259	-4.314	0.106
1.2595	-4.314	0.126
1.26	-4.314	0.162
1.2605	-4.314	0.141
1.261	-4.314	0.142
1.2615	-4.314	0.147
1.262	-4.314	0.130
1.2625	-4.314	0.118
1.263	-4.314	0.095
1.2635	-4.314	0.057
1.264	-4.314	0.008
1.2645	-4.314	-0.013
1.265	-4.314	-0.033
1.2655	-4.314	-0.058
1.266	-4.314	-0.088
1.2665	-4.314	-0.112
1.267	-4.314	-0.126
1.2675	-4.314	-0.142
1.268	-4.314	-0.165
1.2685	-4.314	-0.193
1.269	-4.314	-0.203
1.2695	-4.314	-0.197
1.27	-4.314	-0.186
1.2705	-4.314	-0.175
1.271	-4.314	-0.164
1.2715	-4.314	-0.148
1.272	-4.314	-0.114
1.2725	-4.314	-0.073
1.273	-4.314	-0.045
1.2735	-4.314	-0.029
1.274	-4.314	0.011
1.2745	-4.314	0.057
1.275	-4.314	0.084
1.2755	-4.314	0.117
1.276	-4.314	0.127
1.2765	-4.314	0.136
1.277	-4.314	0.135
1.2775	-4.314	0.121
1.278	-4.314	0.103
1.2785	-4.314	0.118
1.279	-4.314	0.138
1.2795	-4.314	0.128
1.28	-4.314	0.091
1.2805	-4.314	0.048
1.281	-4.314	0.000
1.2815	-4.314	-0.018
1.282	-4.314	-0.047
1.2825	-4.314	-0.078
1.283	-4.314	-0.109
1.2835	-4.314	-0.114
1.284	-4.314	-0.155
1.2845	-4.314	-0.171
1.285	-4.314	-0.206
1.2855	-4.314	-0.210
1.286	-4.314	-0.186
1.2865	-4.314	-0.172
1.287	-4.314	-0.159
1.2875	-4.314	-0.158
1.288	-4.314	-0.153
1.2885	-4.314	-0.117
1.289	-4.314	-0.075
1.2895	-4.314	-0.040
1.29	-4.314	-0.005
1.2905	-4.314	0.031
1.291	-4.314	0.041
1.2915	-4.314	0.074
1.292	-4.314	0.072
1.2925	-4.314	0.105
1.293	-4.314	0.148
1.2935	-4.314	0.159
1.294	-4.314	0.141
1.2945	-4.314	0.151
1.295	-4.314	0.138
1.2955	-4.314	0.125
1.296	-4.314	0.114
1.2965	-4.314	0.093
1.297	-4.314	0.080
1.2975	-4.314	0.033
1.298	-4.314	0.003
1.2985	-4.314	-0.008
1.299	-4.314	-0.058
1.2995	-4.314	-0.110
1.3	-4.314	-0.126
1.3005	-4.314	-0.160
1.301	-4.314	-0.190
1.3015	-4.314	-0.216
1.302	-4.314	-0.225
1.3025	-4.314	-0.227
1.303	-4.314	-0.200
1.3035	-4.314	-0.182
1.304	-4.314	-0.182
1.3045	-4.314	-0.184
1.305	-4.314	-0.160
1.3055	-4.314	-0.114
1.306	-4.314	-0.092
1.3065	-4.314	-0.056
1.307	-4.314	-0.009
1.3075	-4.314	0.048
1.308	-4.314	0.100
1.3085	-4.314	0.137
1.309	-4.314	0.160
1.3095	-4.314	0.164
1.31	-4.314	0.165
1.3105	-4.314	0.140
1.311	-4.314	0.127
1.3115	-4.314	0.124
1.312	-4.314	0.132
1.3125	-4.314	0.134
1.313	-4.314	0.119
1.3135	-4.314	0.085
1.314	-4.314	0.036
1.3145	-4.314	-0.010
1.315	-4.314	-0.034
1.3155	-4.314	-0.078
1.316	-4.314	-0.117
1.3165	-4.314	-0.130
1.317	-4.314	-0.155
1.3175	-4.314	-0.181
1.318	-4.314	-0.206
1.3185	-4.314	-0.225
1.319	-4.314	-0.235
1.3195	-4.314	-0.206
1.32	-4.314	-0.190
1.3205	-4.314	-0.183
1.321	-4.314	-0.177
1.3215	-4.314	-0.154
1.322	-4.314	-0.098
1.3225	-4.314	-0.055
1.323	-4.314	-0.011
1.3235	-4.314	0.019
1.324	-4.314	0.046
1.3245	-4.314	0.081
1.325	-4.314	0.107
1.3255	-4.314	0.118
1.326	-4.314	0.138
1.3265	-4.314	0.165
1.327	-4.314	0.153
1.3275	-4.314	0.148
1.328	-4.314	0.149
1.3285	-4.314	0.138
1.329	-4.314	0.114
1.3295	-4.314	0.104
1.33	-4.314	0.095
1.3305	-4.314	0.074
1.331	-4.314	0.017
1.3315	-4.314	-0.007
1.332	-4.314	-0.039
1.3325	-4.314	-0.067
1.333	-4.314	-0.103
1.3335	-4.314	-0.118
1.334	-4.314	-0.162
1.3345	-4.314	-0.182
1.335	-4.314	-0.203
1.3355	-4.314	-0.207
1.336	-4.314	-0.193
1.3365	-4.314	-0.194
1.337	-4.314	-0.180
1.3375	-4.314	-0.175
1.338	-4.314	-0.155
1.3385	-4.314	-0.124
1.339	-4.314	-0.083
1.3395	-4.314	-0.041
1.34	-4.314	-0.022
1.3405	-4.314	0.008
1.341	-4.314	0.043
1.3415	-4.314	0.081
1.342	-4.314	0.085
1.3425	-4.314	0.102
1.343	-4.314	0.126
1.3435	-4.314	0.139
1.344	-4.314	0.133
1.3445	-4.314	0.138
1.345	-4.314	0.120
1.3455	-4.314	0.105
1.346	-4.314	0.105
1.3465	-4.314	0.106
1.347	-4.314	0.075
1.3475	-4.314	0.027
1.348	-4.314	0.007
1.3485	-4.314	-0.015
1.349	-4.314	-0.043
1.3495	-4.314	-0.071
1.35	-4.314	-0.093
1.3505	-4.314	-0.136
1.351	-4.314	-0.149
1.3515	-4.314	-0.166
1.352	-4.314	-0.188
1.3525	-4.314	-0.195
1.353	-4.314	-0.198
1.3535	-4.314	-0.202
1.354	-4.314	-0.192
1.3545	-4.314	-0.183
1.355	-4.313	-0.156
1.3555	-4.313	-0.110
1.356	-4.313	-0.065
1.3565	-4.313	-0.028
1.357	-4.313	-0.007
1.3575	-4.313	0.037
1.358	-4.313	0.076
1.3585	-4.313	0.087
1.359	-4.313	0.115
1.3595	-4.313	0.120
1.36	-4.313	0.128
1.3605	-4.313	0.124
1.361	-4.313	0.125
1.3615	-4.313	0.156
1.362	-4.313	0.160
1.3625	-4.313	0.150
1.363	-4.313	0.116
1.3635	-4.313	0.084
1.364	-4.313	0.038
1.3645	-4.313	-0.008
1.365	-4.313	-0.041
1.3655	-4.313	-0.062
1.366	-4.313	-0.083
1.3665	-4.313	-0.104
1.367	-4.313	-0.143
1.3675	-4.313	-0.182
1.368	-4.313	-0.201
1.3685	-4.313	-0.230
1.369	-4.313	-0.214
1.3695	-4.313	-0.190
1.37	-4.313	-0.183
1.3705	-4.313	-0.174
1.371	-4.313	-0.168
1.3715	-4.313	-0.137
1.372	-4.313	-0.084
1.3725	-4.313	-0.049
1.373	-4.313	-0.022
1.3735	-4.313	0.002
1.374	-4.313	0.035
1.3745	-4.313	0.066
1.375	-4.313	0.079
1.3755	-4.313	0.102
1.376	-4.313	0.119
1.3765	-4.313	0.169
1.377	-4.313	0.155
1.3775	-4.313	0.148
1.378	-4.313	0.135
1.3785	-4.313	0.125
1.379	-4.313	0.122
1.3795	-4.313	0.110
1.38	-4.313	0.070
1.3805	-4.313	0.035
1.381	-4.313	-0.005
1.3815	-4.313	-0.034
1.382	-4.313	-0.055
1.3825	-4.313	-0.077
1.383	-4.313	-0.113
1.3835	-4.313	-0.119
1.384	-4.313	-0.164
1.3845	-4.313	-0.188
1.385	-4.313	-0.200
1.3855	-4.313	-0.202
1.386	-4.313	-0.183
1.3865	-4.313	-0.175
1.387	-4.313	-0.166
1.3875	-4.313	-0.170
1.388	-4.313	-0.143
1.3885	-4.313	-0.105
1.389	-4.313	-0.060
1.3895	-4.313	-0.039
1.39	-4.313	-0.025
1.3905	-4.313	0.008
1.391	-4.313	0.050
1.3915	-4.313	0.076
1.392	-4.313	0.100
1.3925	-4.313	0.119
1.393	-4.313	0.138
1.3935	-4.313	0.145
1.394	-4.313	0.135
1.3945	-4.313	0.126
1.395	-4.313	0.134
1.3955	-4.313	0.131
1.396	-4.313	0.126
1.3965	-4.313	0.095
1.397	-4.313	0.063
1.3975	-4.313	0.029
1.398	-4.313	0.001
1.3985	-4.313	-0.026
1.399	-4.313	-0.051
1.3995	-4.313	-0.077
1.4	-4.313	-0.089
1.4005	-4.313	-0.134
1.401	-4.313	-0.163
1.4015	-4.313	-0.196
1.402	-4.313	-0.200
1.4025	-4.313	-0.204
1.403	-4.313	-0.193
1.4035	-4.313	-0.163
1.404	-4.313	-0.150
1.4045	-4.313	-0.153
1.405	-4.313	-0.143
1.4055	-4.313	-0.110
1.406	-4.313	-0.072
1.4065	-4.313	-0.021
1.407	-4.313	0.026
1.4075	-4.313	0.063
1.408	-4.313	0.105
1.4085	-4.313	0.126
1.409	-4.313	0.120
1.4095	-4.313	0.138
1.41	-4.313	0.161
1.4105	-4.313	0.144
1.411	-4.313	0.141
1.4115	-4.313	0.127
1.412	-4.313	0.119
1.4125	-4.313	0.103
1.413	-4.313	0.086
1.4135	-4.313	0.037
1.414	-4.313	0.001
1.4145	-4.313	-0.043
1.415	-4.313	-0.051
1.4155	-4.313	-0.071
1.416	-4.313	-0.105
1.4165	-4.313	-0.128
1.417	-4.313	-0.147
1.4175	-4.313	-0.182
1.418	-4.313	-0.188
1.4185	-4.313	-0.206
1.419	-4.313	-0.215
1.4195	-4.313	-0.193
1.42	-4.313	-0.167
1.4205	-4.313	-0.153
1.421	-4.313	-0.145
1.4215	-4.313	-0.134
1.422	-4.313	-0.097
1.4225	-4.313	-0.058
1.423	-4.313	-0.040
1.4235	-4.313	-0.019
1.424	-4.313	0.006
1.4245	-4.313	0.043
1.425	-4.313	0.070
1.4255	-4.313	0.114
1.426	-4.313	0.148
1.4265	-4.313	0.177
1.427	-4.313	0.152
1.4275	-4.313	0.171
1.428	-4.313	0.167
1.4285	-4.313	0.160
1.429	-4.313	0.143
1.4295	-4.313	0.143
1.43	-4.313	0.117
1.4305	-4.313	0.084
1.431	-4.313	0.073
1.4315	-4.313	0.054
1.432	-4.313	0.004
1.4325	-4.313	-0.062
1.433	-4.313	-0.109
1.4335	-4.313	-0.136
1.434	-4.313	-0.165
1.4345	-4.313	-0.193
1.435	-4.313	-0.220
1.4355	-4.313	-0.212
1.436	-4.313	-0.207
1.4365	-4.313	-0.201
1.437	-4.313	-0.213
1.4375	-4.313	-0.217
1.438	-4.313	-0.207
1.4385	-4.313	-0.166
1.439	-4.313	-0.123
1.4395	-4.313	-0.063
1.44	-4.313	-0.027
1.4405	-4.313	-0.013
1.441	-4.313	0.034
1.4415	-4.313	0.072
1.442	-4.313	0.082
1.4425	-4.313	0.099
1.443	-4.313	0.126
1.4435	-4.313	0.135
1.444	-4.313	0.135
1.4445	-4.313	0.128
1.445	-4.313	0.125
1.4455	-4.313	0.125
1.446	-4.313	0.122
1.4465	-4.313	0.102
1.447	-4.313	0.060
1.4475	-4.313	0.020
1.448	-4.313	-0.010
1.4485	-4.313	-0.038
1.449	-4.313	-0.071
1.4495	-4.313	-0.098
1.45	-4.313	-0.112
1.4505	-4.313	-0.141
1.451	-4.313	-0.168
1.4515	-4.313	-0.203
1.452	-4.313	-0.207
1.4525	-4.313	-0.204
1.453	-4.313	-0.184
1.4535	-4.313	-0.188
1.454	-4.313	-0.186
1.4545	-4.313	-0.188
1.455	-4.313	-0.174
1.4555	-4.313	-0.125
1.456	-4.313	-0.086
1.4565	-4.313	-0.075
1.457	-4.313	-0.023
1.4575	-4.313	0.040
1.458	-4.313	0.113
1.4585	-4.313	0.134
1.459	-4.313	0.165
1.4595	-4.313	0.166
1.46	-4.313	0.188
1.4605	-4.313	0.168
1.461	-4.313	0.172
1.4615	-4.313	0.142
1.462	-4.313	0.131
1.4625	-4.313	0.115
1.463	-4.313	0.100
1.4635	-4.313	0.059
1.464	-4.313	0.011
1.4645	-4.313	-0.020
1.465	-4.313	-0.046
1.4655	-4.313	-0.079
1.466	-4.313	-0.115
1.4665	-4.313	-0.130
1.467	-4.313	-0.134
1.4675	-4.313	-0.160
1.468	-4.313	-0.174
1.4685	-4.313	-0.199
1.469	-4.313	-0.209
1.4695	-4.313	-0.188
1.47	-4.313	-0.168
1.4705	-4.313	-0.154
1.471	-4.313	-0.155
1.4715	-4.313	-0.140
1.472	-4.313	-0.113
1.4725	-4.313	-0.069
1.473	-4.313	-0.053
1.4735	-4.313	-0.029
1.474	-4.313	-0.003
1.4745	-4.313	0.042
1.475	-4.313	0.054
1.4755	-4.313	0.083
1.476	-4.313	0.118
1.4765	-4.313	0.151
1.477	-4.313	0.149
1.4775	-4.313	0.155
1.478	-4.313	0.148
1.4785	-4.313	0.159
1.479	-4.313	0.155
1.4795	-4.313	0.133
1.48	-4.313	0.111
1.4805	-4.313	0.061
1.481	-4.313	0.022
1.4815	-4.313	-0.006
1.482	-4.313	-0.042
1.4825	-4.313	-0.071
1.483	-4.313	-0.093
1.4835	-4.313	-0.102
1.484	-4.313	-0.142
1.4845	-4.313	-0.167
1.485	-4.313	-0.197
1.4855	-4.313	-0.187
1.486	-4.313	-0.166
1.4865	-4.313	-0.162
1.487	-4.313	-0.154
1.4875	-4.313	-0.176
1.488	-4.313	-0.155
1.4885	-4.313	-0.124
1.489	-4.313	-0.081
1.4895	-4.313	-0.049
1.49	-4.313	-0.019
1.4905	-4.313	0.020
1.491	-4.313	0.070
1.4915	-4.313	0.105
1.492	-4.313	0.112
1.4925	-4.313	0.116
1.493	-4.313	0.135
1.4935	-4.313	0.142
1.494	-4.313	0.118
1.4945	-4.313	0.109
1.495	-4.313	0.129
1.4955	-4.313	0.145
1.496	-4.313	0.136
1.4965	-4.313	0.115
1.497	-4.313	0.073
1.4975	-4.313	0.035
1.498	-4.313	0.006
1.4985	-4.313	-0.039
1.499	-4.313	-0.061
1.4995	-4.313	-0.095
1.5	-4.313	-0.118
1.5005	-4.313	-0.158
1.501	-4.313	-0.178
1.5015	-4.313	-0.184
1.502	-4.313	-0.189
1.5025	-4.313	-0.189
1.503	-4.313	-0.163
1.5035	-4.313	-0.163
1.504	-4.313	-0.179
1.5045	-4.313	-0.165
1.505	-4.313	-0.144
1.5055	-4.313	-0.092
1.506	-4.313	-0.043
1.5065	-4.313	-0.013
1.507	-4.313	0.005
1.5075	-4.313	0.024
1.508	-4.313	0.060
1.5085	-4.313	0.084
1.509	-4.313	0.109
1.5095	-4.313	0.123
1.51	-4.313	0.145
1.5105	-4.313	0.118
1.511	-4.313	0.128
1.5115	-4.313	0.140
1.512	-4.313	0.157
1.5125	-4.313	0.135
1.513	-4.313	0.109
1.5135	-4.313	0.070
1.514	-4.313	0.039
1.5145	-4.313	0.010
1.515	-4.313	-0.004
1.5155	-4.313	-0.047
1.516	-4.313	-0.049
1.5165	-4.313	-0.062
1.517	-4.313	-0.110
1.5175	-4.313	-0.155
1.518	-4.313	-0.171
1.5185	-4.313	-0.209
1.519	-4.313	-0.223
1.5195	-4.313	-0.209
1.52	-4.313	-0.213
1.5205	-4.313	-0.198
1.521	-4.313	-0.170
1.5215	-4.313	-0.141
1.522	-4.313	-0.111
1.5225	-4.313	-0.068
1.523	-4.313	-0.053
1.5235	-4.313	-0.034
1.524	-4.313	-0.018
1.5245	-4.313	0.041
1.525	-4.313	0.065
1.5255	-4.313	0.095
1.526	-4.313	0.109
1.5265	-4.313	0.144
1.527	-4.313	0.123
1.5275	-4.313	0.116
1.528	-4.313	0.110
1.5285	-4.313	0.134
1.529	-4.313	0.144
1.5295	-4.313	0.127
1.53	-4.313	0.094
1.5305	-4.313	0.061
1.531	-4.313	0.020
1.5315	-4.313	-0.009
1.532	-4.313	-0.031
1.5325	-4.313	-0.059
1.533	-4.313	-0.085
1.5335	-4.313	-0.105
1.534	-4.313	-0.158
1.5345	-4.313	-0.185
1.535	-4.313	-0.210
1.5355	-4.313	-0.222
1.536	-4.313	-0.205
1.5365	-4.313	-0.198
1.537	-4.313	-0.190
1.5375	-4.313	-0.185
1.538	-4.313	-0.164
1.5385	-4.313	-0.134
1.539	-4.313	-0.077
1.5395	-4.313	-0.038
1.54	-4.313	0.004
1.5405	-4.313	0.044
1.541	-4.313	0.074
1.5415	-4.313	0.108
1.542	-4.313	0.123
1.5425	-4.313	0.131
1.543	-4.313	0.128
1.5435	-4.313	0.130
1.544	-4.313	0.120
1.5445	-4.313	0.123
1.545	-4.313	0.121
1.5455	-4.313	0.113
1.546	-4.313	0.103
1.5465	-4.313	0.080
1.547	-4.314	0.074
1.5475	-4.314	0.070
1.548	-4.314	0.039
1.5485	-4.314	-0.007
1.549	-4.314	-0.050
1.5495	-4.314	-0.082
1.55	-4.314	-0.126
1.5505	-4.314	-0.150
1.551	-4.314	-0.179
1.5515	-4.314	-0.203
1.552	-4.314	-0.204
1.5525	-4.314	-0.196
1.553	-4.314	-0.178
1.5535	-4.314	-0.174
1.554	-4.314	-0.176
1.5545	-4.314	-0.174
1.555	-4.314	-0.147
1.5555	-4.314	-0.105
1.556	-4.314	-0.075
1.5565	-4.314	-0.045
1.557	-4.314	-0.007
1.5575	-4.314	0.021
1.558	-4.314	0.070
1.5585	-4.314	0.086
1.559	-4.314	0.109
1.5595	-4.314	0.138
1.56	-4.314	0.162
1.5605	-4.314	0.136
1.561	-4.314	0.124
1.5615	-4.314	0.112
1.562	-4.314	0.105
1.5625	-4.314	0.113
1.563	-4.314	0.106
1.5635	-4.314	0.074
1.564	-4.314	0.039
1.5645	-4.314	-0.012
1.565	-4.314	-0.025
1.5655	-4.314	-0.053
1.566	-4.314	-0.082
1.5665	-4.314	-0.101
1.567	-4.314	-0.112
1.5675	-4.314	-0.158
1.568	-4.314	-0.194
1.5685	-4.314	-0.211
1.569	-4.314	-0.217
1.5695	-4.314	-0.193
1.57	-4.314	-0.173
1.5705	-4.314	-0.166
1.571	-4.314	-0.153
1.5715	-4.314	-0.142
1.572	-4.314	-0.101
1.5725	-4.314	-0.045
1.573	-4.314	-0.017
1.5735	-4.314	0.010
1.574	-4.314	0.031
1.5745	-4.314	0.078
1.575	-4.314	0.121
1.5755	-4.314	0.159
1.576	-4.314	0.159
1.5765	-4.314	0.167
1.577	-4.314	0.130
1.5775	-4.314	0.115
1.578	-4.314	0.118
1.5785	-4.314	0.125
1.579	-4.314	0.116
1.5795	-4.314	0.100
1.58	-4.314	0.077
1.5805	-4.314	0.037
1.581	-4.314	-0.005
1.5815	-4.314	-0.035
1.582	-4.314	-0.063
1.5825	-4.314	-0.106
1.583	-4.314	-0.122
1.5835	-4.314	-0.131
1.584	-4.314	-0.169
1.5845	-4.314	-0.204
1.585	-4.314	-0.227
1.5855	-4.314	-0.223
1.586	-4.314	-0.205
1.5865	-4.314	-0.160
1.587	-4.314	-0.130
1.5875	-4.314	-0.118
1.588	-4.314	-0.100
1.5885	-4.314	-0.097
1.589	-4.314	-0.080
1.5895	-4.314	-0.057
1.59	-4.314	-0.030
1.5905	-4.314	-0.005
1.591	-4.314	0.051
1.5915	-4.314	0.113
1.592	-4.314	0.142
1.5925	-4.314	0.167
1.593	-4.314	0.179
1.5935	-4.314	0.166
1.594	-4.314	0.131
1.5945	-4.314	0.143
1.595	-4.314	0.146
1.5955	-4.314	0.146
1.596	-4.314	0.135
1.5965	-4.314	0.119
1.597	-4.314	0.080
1.5975	-4.314	0.039
1.598	-4.314	0.002
1.5985	-4.314	-0.029
1.599	-4.314	-0.087
1.5995	-4.314	-0.115
1.6	-4.314	-0.144
1.6005	-4.314	-0.163
1.601	-4.314	-0.177
1.6015	-4.314	-0.200
1.602	-4.314	-0.212
1.6025	-4.314	-0.212
1.603	-4.314	-0.197
1.6035	-4.314	-0.183
1.604	-4.314	-0.161
1.6045	-4.314	-0.143
1.605	-4.314	-0.114
1.6055	-4.316	-0.071
1.606	-4.316	-0.039
1.6065	-4.316	-0.026
1.607	-4.316	-0.009
1.6075	-4.316	0.021
1.608	-4.316	0.077
1.6085	-4.316	0.094
1.609	-4.316	0.114
1.6095	-4.316	0.137
1.61	-4.316	0.163
1.6105	-4.316	0.123
1.611	-4.316	0.126
1.6115	-4.316	0.131
1.612	-4.316	0.138
1.6125	-4.316	0.121
1.613	-4.316	0.103
1.6135	-4.316	0.069
1.614	-4.316	0.029
1.6145	-4.316	-0.019
1.615	-4.316	-0.054
1.6155	-4.316	-0.080
1.616	-4.316	-0.075
1.6165	-4.316	-0.068
1.617	-4.316	-0.086
1.6175	-4.316	-0.154
1.618	-4.316	-0.209
1.6185	-4.316	-0.228
1.619	-4.316	-0.249
1.6195	-4.316	-0.228
1.62	-4.316	-0.208
1.6205	-4.316	-0.195
1.621	-4.316	-0.185
1.6215	-4.316	-0.160
1.622	-4.316	-0.119
1.6225	-4.316	-0.045
1.623	-4.316	-0.001
1.6235	-4.316	0.014
1.624	-4.316	0.042
1.6245	-4.316	0.090
1.625	-4.316	0.101
1.6255	-4.316	0.111
1.626	-4.316	0.120
1.6265	-4.316	0.138
1.627	-4.316	0.146
1.6275	-4.316	0.137
1.628	-4.316	0.130
1.6285	-4.316	0.123
1.629	-4.316	0.119
1.6295	-4.316	0.124
1.63	-4.316	0.101
1.6305	-4.316	0.054
1.631	-4.316	0.026
1.6315	-4.316	-0.017
1.632	-4.316	-0.041
1.6325	-4.316	-0.069
1.633	-4.316	-0.093
1.6335	-4.316	-0.107
1.634	-4.316	-0.136
1.6345	-4.316	-0.165
1.635	-4.316	-0.200
1.6355	-4.316	-0.218
1.636	-4.316	-0.210
1.6365	-4.316	-0.203
1.637	-4.316	-0.187
1.6375	-4.316	-0.182
1.638	-4.316	-0.160
1.6385	-4.316	-0.137
1.639	-4.316	-0.084
1.6395	-4.316	-0.054
1.64	-4.316	-0.024
1.6405	-4.316	0.010
1.641	-4.316	0.035
1.6415	-4.316	0.079
1.642	-4.316	0.094
1.6425	-4.316	0.116
1.643	-4.316	0.139
1.6435	-4.316	0.162
1.644	-4.316	0.137
1.6445	-4.316	0.131
1.645	-4.316	0.136
1.6455	-4.316	0.159
1.646	-4.316	0.145
1.6465	-4.316	0.122
1.647	-4.316	0.078
1.6475	-4.317	0.044
1.648	-4.317	0.006
1.6485	-4.317	-0.010
1.649	-4.317	-0.044
1.6495	-4.317	-0.077
1.65	-4.317	-0.105
1.6505	-4.317	-0.125
1.651	-4.317	-0.133
1.6515	-4.317	-0.143
1.652	-4.317	-0.171
1.6525	-4.317	-0.200
1.653	-4.317	-0.196
1.6535	-4.317	-0.195
1.654	-4.317	-0.204
1.6545	-4.317	-0.195
1.655	-4.317	-0.162
1.6555	-4.317	-0.120
1.656	-4.317	-0.073
1.6565	-4.317	-0.045
1.657	-4.317	-0.004
1.6575	-4.317	0.022
1.658	-4.317	0.059
1.6585	-4.317	0.091
1.659	-4.317	0.111
1.6595	-4.317	0.130
1.66	-4.317	0.159
1.6605	-4.317	0.142
1.661	-4.317	0.138
1.6615	-4.317	0.134
1.662	-4.317	0.136
1.6625	-4.317	0.131
1.663	-4.317	0.114
1.6635	-4.317	0.089
1.664	-4.317	0.053
1.6645	-4.317	0.014
1.665	-4.317	-0.013
1.6655	-4.317	-0.053
1.666	-4.317	-0.082
1.6665	-4.317	-0.103
1.667	-4.317	-0.119
1.6675	-4.317	-0.160
1.668	-4.317	-0.190
1.6685	-4.317	-0.196
1.669	-4.317	-0.183
1.6695	-4.317	-0.159
1.67	-4.317	-0.157
1.6705	-4.317	-0.158
1.671	-4.317	-0.171
1.6715	-4.317	-0.139
1.672	-4.317	-0.111
1.6725	-4.317	-0.067
1.673	-4.317	-0.048
1.6735	-4.317	-0.013
1.674	-4.317	0.003
1.6745	-4.317	0.040
1.675	-4.317	0.060
1.6755	-4.317	0.091
1.676	-4.317	0.115
1.6765	-4.317	0.161
1.677	-4.317	0.155
1.6775	-4.317	0.131
1.678	-4.317	0.130
1.6785	-4.317	0.112
1.679	-4.317	0.111
1.6795	-4.317	0.124
1.68	-4.317	0.110
1.6805	-4.317	0.079
1.681	-4.317	0.038
1.6815	-4.317	-0.002
1.682	-4.317	-0.025
1.6825	-4.317	-0.077
1.683	-4.317	-0.092
1.6835	-4.317	-0.120
1.684	-4.319	-0.153
1.6845	-4.319	-0.179
1.685	-4.319	-0.208
1.6855	-4.319	-0.208
1.686	-4.319	-0.198
1.6865	-4.319	-0.189
1.687	-4.319	-0.185
1.6875	-4.319	-0.177
1.688	-4.319	-0.149
1.6885	-4.319	-0.122
1.689	-4.319	-0.092
1.6895	-4.319	-0.051
1.69	-4.319	-0.024
1.6905	-4.319	-0.000
1.691	-4.319	0.021
1.6915	-4.319	0.075
1.692	-4.319	0.119
1.6925	-4.319	0.165
1.693	-4.319	0.192
1.6935	-4.319	0.191
1.694	-4.319	0.152
1.6945	-4.319	0.133
1.695	-4.319	0.122
1.6955	-4.319	0.104
1.696	-4.319	0.115
1.6965	-4.319	0.102
1.697	-4.319	0.052
1.6975	-4.319	0.014
1.698	-4.319	-0.013
1.6985	-4.319	-0.021
1.699	-4.319	-0.054
1.6995	-4.319	-0.078
1.7	-4.319	-0.103
1.7005	-4.319	-0.135
1.701	-4.319	-0.166
1.7015	-4.319	-0.207
1.702	-4.319	-0.223
1.7025	-4.319	-0.227
1.703	-4.319	-0.199
1.7035	-4.319	-0.186
1.704	-4.319	-0.171
1.7045	-4.319	-0.153
1.705	-4.319	-0.130
1.7055	-4.319	-0.100
1.706	-4.319	-0.058
1.7065	-4.319	-0.032
1.707	-4.319	0.000
1.7075	-4.319	0.057
1.708	-4.319	0.116
1.7085	-4.319	0.144
1.709	-4.319	0.167
1.7095	-4.319	0.153
1.71	-4.319	0.141
1.7105	-4.319	0.097
1.711	-4.319	0.080
1.7115	-4.319	0.061
1.712	-4.319	0.081
1.7125	-4.319	0.102
1.713	-4.319	0.120
1.7135	-4.319	0.087
1.714	-4.319	0.047
1.7145	-4.319	0.009
1.715	-4.319	-0.030
1.7155	-4.319	-0.060
1.716	-4.319	-0.095
1.7165	-4.319	-0.121
1.717	-4.320	-0.132
1.7175	-4.320	-0.161
1.718	-4.320	-0.191
1.7185	-4.320	-0.223
1.719	-4.320	-0.229
1.7195	-4.320	-0.201
1.72	-4.320	-0.191
1.7205	-4.320	-0.175
1.721	-4.320	-0.170
1.7215	-4.320	-0.149
1.722	-4.320	-0.118
1.7225	-4.320	-0.072
1.723	-4.320	-0.047
1.7235	-4.320	-0.020
1.724	-4.320	0.005
1.7245	-4.320	0.042
1.725	-4.320	0.073
1.7255	-4.320	0.095
1.726	-4.320	0.131
1.7265	-4.320	0.142
1.727	-4.320	0.133
1.7275	-4.320	0.110
1.728	-4.320	0.115
1.7285	-4.320	0.125
1.729	-4.320	0.145
1.7295	-4.320	0.139
1.73	-4.320	0.112
1.7305	-4.320	0.061
1.731	-4.320	0.006
1.7315	-4.320	-0.027
1.732	-4.320	-0.048
1.7325	-4.320	-0.075
1.733	-4.320	-0.096
1.7335	-4.320	-0.110
1.734	-4.320	-0.154
1.7345	-4.320	-0.172
1.735	-4.320	-0.198
1.7355	-4.320	-0.205
1.736	-4.320	-0.204
1.7365	-4.320	-0.197
1.737	-4.320	-0.190
1.7375	-4.320	-0.182
1.738	-4.320	-0.154
1.7385	-4.320	-0.130
1.739	-4.320	-0.082
1.7395	-4.320	-0.042
1.74	-4.320	-0.025
1.7405	-4.320	0.015
1.741	-4.320	0.039
1.7415	-4.320	0.081
1.742	-4.320	0.104
1.7425	-4.320	0.129
1.743	-4.320	0.136
1.7435	-4.320	0.164
1.744	-4.320	0.145
1.7445	-4.320	0.139
1.745	-4.320	0.140
1.7455	-4.320	0.138
1.746	-4.320	0.131
1.7465	-4.320	0.112
1.747	-4.320	0.083
1.7475	-4.322	0.044
1.748	-4.322	-0.004
1.7485	-4.322	-0.035
1.749	-4.322	-0.060
1.7495	-4.322	-0.086
1.75	-4.322	-0.103
1.7505	-4.322	-0.138
1.751	-4.322	-0.160
1.7515	-4.322	-0.192
1.752	-4.322	-0.210
1.7525	-4.322	-0.200
1.753	-4.322	-0.179
1.7535	-4.322	-0.165
1.754	-4.322	-0.162
1.7545	-4.322	-0.169
1.755	-4.322	-0.131
1.7555	-4.322	-0.094
1.756	-4.322	-0.054
1.7565	-4.322	-0.029
1.757	-4.322	-0.004
1.7575	-4.322	0.017
1.758	-4.322	0.058
1.7585	-4.322	0.078
1.759	-4.322	0.106
1.7595	-4.322	0.120
1.76	-4.322	0.152
1.7605	-4.322	0.131
1.761	-4.322	0.126
1.7615	-4.322	0.135
1.762	-4.322	0.130
1.7625	-4.322	0.125
1.763	-4.322	0.102
1.7635	-4.322	0.090
1.764	-4.322	0.047
1.7645	-4.322	-0.004
1.765	-4.322	-0.025
1.7655	-4.322	-0.067
1.766	-4.322	-0.112
1.7665	-4.322	-0.123
1.767	-4.322	-0.139
1.7675	-4.322	-0.175
1.768	-4.322	-0.195
1.7685	-4.322	-0.218
1.769	-4.322	-0.224
1.7695	-4.322	-0.204
1.77	-4.322	-0.193
1.7705	-4.322	-0.178
1.771	-4.322	-0.145
1.7715	-4.322	-0.113
1.772	-4.322	-0.088
1.7725	-4.322	-0.059
1.773	-4.322	-0.034
1.7735	-4.322	-0.030
1.774	-4.322	-0.004
1.7745	-4.322	0.045
1.775	-4.322	0.071
1.7755	-4.322	0.095
1.776	-4.322	0.119
1.7765	-4.322	0.139
1.777	-4.323	0.147
1.7775	-4.323	0.136
1.778	-4.323	0.148
1.7785	-4.323	0.131
1.779	-4.323	0.130
1.7795	-4.323	0.118
1.78	-4.323	0.092
1.7805	-4.323	0.042
1.781	-4.323	0.009
1.7815	-4.323	-0.006
1.782	-4.323	-0.028
1.7825	-4.323	-0.075
1.783	-4.323	-0.097
1.7835	-4.323	-0.096
1.784	-4.323	-0.146
1.7845	-4.323	-0.163
1.785	-4.323	-0.199
1.7855	-4.323	-0.207
1.786	-4.323	-0.199
1.7865	-4.323	-0.188
1.787	-4.323	-0.198
1.7875	-4.323	-0.191
1.788	-4.323	-0.177
1.7885	-4.323	-0.151
1.789	-4.323	-0.113
1.7895	-4.323	-0.051
1.79	-4.323	-0.014
1.7905	-4.323	0.019
1.791	-4.323	0.038
1.7915	-4.323	0.085
1.792	-4.323	0.103
1.7925	-4.323	0.134
1.793	-4.323	0.151
1.7935	-4.323	0.187
1.794	-4.323	0.175
1.7945	-4.323	0.156
1.795	-4.323	0.145
1.7955	-4.323	0.136
1.796	-4.323	0.121
1.7965	-4.323	0.106
1.797	-4.323	0.068
1.7975	-4.323	0.018
1.798	-4.323	0.007
1.7985	-4.323	-0.012
1.799	-4.323	-0.038
1.7995	-4.323	-0.077
1.8	-4.323	-0.110
1.8005	-4.323	-0.145
1.801	-4.323	-0.155
1.8015	-4.323	-0.175
1.802	-4.323	-0.189
1.8025	-4.323	-0.191
1.803	-4.323	-0.173
1.8035	-4.323	-0.188
1.804	-4.323	-0.154
1.8045	-4.323	-0.131
1.805	-4.325	-0.093
1.8055	-4.325	-0.053
1.806	-4.325	-0.029
1.8065	-4.325	-0.028
1.807	-4.325	-0.035
1.8075	-4.325	-0.019
1.808	-4.325	0.018
1.8085	-4.325	0.042
1.809	-4.325	0.095
1.8095	-4.325	0.110
1.81	-4.325	0.137
1.8105	-4.325	0.123
1.811	-4.325	0.111
1.8115	-4.325	0.109
1.812	-4.325	0.095
1.8125	-4.325	0.105
1.813	-4.325	0.089
1.8135	-4.325	0.066
1.814	-4.325	0.044
1.8145	-4.325	0.030
1.815	-4.325	-0.001
1.8155	-4.325	-0.035
1.816	-4.325	-0.070
1.8165	-4.325	-0.103
1.817	-4.325	-0.109
1.8175	-4.325	-0.156
1.818	-4.325	-0.188
1.8185	-4.325	-0.218
1.819	-4.325	-0.229
1.8195	-4.325	-0.209
1.82	-4.325	-0.200
1.8205	-4.325	-0.191
1.821	-4.325	-0.173
1.8215	-4.325	-0.159
1.822	-4.325	-0.119
1.8225	-4.325	-0.068
1.823	-4.325	-0.037
1.8235	-4.325	-0.010
1.824	-4.325	0.029
1.8245	-4.325	0.061
1.825	-4.325	0.098
1.8255	-4.325	0.122
1.826	-4.325	0.143
1.8265	-4.325	0.138
1.827	-4.325	0.138
1.8275	-4.325	0.141
1.828	-4.325	0.124
1.8285	-4.325	0.127
1.829	-4.325	0.128
1.8295	-4.325	0.116
1.83	-4.325	0.100
1.8305	-4.325	0.049
1.831	-4.325	0.007
1.8315	-4.325	-0.010
1.832	-4.325	-0.033
1.8325	-4.325	-0.073
1.833	-4.327	-0.113
1.8335	-4.327	-0.121
1.834	-4.327	-0.152
1.8345	-4.327	-0.165
1.835	-4.327	-0.195
1.8355	-4.327	-0.199
1.836	-4.327	-0.189
1.8365	-4.327	-0.181
1.837	-4.327	-0.181
1.8375	-4.327	-0.171
1.838	-4.327	-0.157
1.8385	-4.327	-0.089
1.839	-4.327	-0.068
1.8395	-4.327	-0.044
1.84	-4.327	-0.023
1.8405	-4.327	0.015
1.841	-4.327	0.042
1.8415	-4.327	0.076
1.842	-4.327	0.087
1.8425	-4.327	0.099
1.843	-4.327	0.132
1.8435	-4.327	0.161
1.844	-4.327	0.140
1.8445	-4.327	0.135
1.845	-4.327	0.137
1.8455	-4.327	0.136
1.846	-4.327	0.130
1.8465	-4.327	0.111
1.847	-4.327	0.076
1.8475	-4.327	0.018
1.848	-4.327	-0.010
1.8485	-4.327	-0.056
1.849	-4.327	-0.093
1.8495	-4.327	-0.124
1.85	-4.327	-0.111
1.8505	-4.327	-0.120
1.851	-4.327	-0.143
1.8515	-4.327	-0.171
1.852	-4.327	-0.191
1.8525	-4.327	-0.208
1.853	-4.327	-0.204
1.8535	-4.327	-0.207
1.854	-4.327	-0.219
1.8545	-4.327	-0.223
1.855	-4.327	-0.180
1.8555	-4.327	-0.121
1.856	-4.327	-0.073
1.8565	-4.327	-0.025
1.857	-4.327	0.008
1.8575	-4.327	0.039
1.858	-4.327	0.084
1.8585	-4.327	0.117
1.859	-4.327	0.161
1.8595	-4.327	0.180
1.86	-4.327	0.190
1.8605	-4.327	0.173
1.861	-4.327	0.162
1.8615	-4.327	0.153
1.862	-4.327	0.135
1.8625	-4.328	0.124
1.863	-4.328	0.105
1.8635	-4.328	0.080
1.864	-4.328	0.019
1.8645	-4.328	-0.005
1.865	-4.328	-0.037
1.8655	-4.328	-0.063
1.866	-4.328	-0.094
1.8665	-4.328	-0.108
1.867	-4.328	-0.134
1.8675	-4.328	-0.172
1.868	-4.328	-0.183
1.8685	-4.328	-0.212
1.869	-4.328	-0.212
1.8695	-4.328	-0.190
1.87	-4.328	-0.171
1.8705	-4.328	-0.172
1.871	-4.328	-0.155
1.8715	-4.328	-0.139
1.872	-4.328	-0.105
1.8725	-4.328	-0.068
1.873	-4.328	-0.024
1.8735	-4.328	-0.006
1.874	-4.328	0.018
1.8745	-4.328	0.055
1.875	-4.328	0.074
1.8755	-4.328	0.086
1.876	-4.328	0.120
1.8765	-4.328	0.152
1.877	-4.328	0.164
1.8775	-4.328	0.162
1.878	-4.328	0.149
1.8785	-4.328	0.134
1.879	-4.328	0.127
1.8795	-4.328	0.122
1.88	-4.328	0.081
1.8805	-4.328	0.060
1.881	-4.328	0.049
1.8815	-4.328	0.048
1.882	-4.328	0.001
1.8825	-4.328	-0.055
1.883	-4.328	-0.104
1.8835	-4.328	-0.138
1.884	-4.328	-0.179
1.8845	-4.328	-0.210
1.885	-4.328	-0.230
1.8855	-4.328	-0.208
1.886	-4.328	-0.189
1.8865	-4.328	-0.166
1.887	-4.328	-0.163
1.8875	-4.328	-0.157
1.888	-4.328	-0.158
1.8885	-4.328	-0.134
1.889	-4.328	-0.103
1.8895	-4.328	-0.063
1.89	-4.328	-0.042
1.8905	-4.328	-0.007
1.891	-4.328	0.037
1.8915	-4.328	0.087
1.892	-4.328	0.120
1.8925	-4.328	0.161
1.893	-4.328	0.175
1.8935	-4.328	0.182
1.894	-4.328	0.144
1.8945	-4.330	0.120
1.895	-4.330	0.114
1.8955	-4.330	0.104
1.896	-4.330	0.113
1.8965	-4.330	0.080
1.897	-4.330	0.048
1.8975	-4.330	0.006
1.898	-4.330	-0.021
1.8985	-4.330	-0.056
1.899	-4.330	-0.069
1.8995	-4.330	-0.096
1.9	-4.330	-0.118
1.9005	-4.330	-0.134
1.901	-4.330	-0.171
1.9015	-4.330	-0.199
1.902	-4.330	-0.209
1.9025	-4.330	-0.208
1.903	-4.330	-0.182
1.9035	-4.330	-0.170
1.904	-4.330	-0.160
1.9045	-4.330	-0.159
1.905	-4.330	-0.137
1.9055	-4.330	-0.082
1.906	-4.330	-0.042
1.9065	-4.330	-0.014
1.907	-4.330	0.011
1.9075	-4.330	0.034
1.908	-4.330	0.070
1.9085	-4.330	0.096
1.909	-4.330	0.112
1.9095	-4.330	0.136
1.91	-4.330	0.154
1.9105	-4.330	0.147
1.911	-4.330	0.139
1.9115	-4.330	0.135
1.912	-4.330	0.127
1.9125	-4.330	0.115
1.913	-4.330	0.095
1.9135	-4.330	0.072
1.914	-4.330	0.019
1.9145	-4.330	-0.033
1.915	-4.330	-0.040
1.9155	-4.330	-0.052
1.916	-4.330	-0.095
1.9165	-4.330	-0.122
1.917	-4.330	-0.125
1.9175	-4.330	-0.150
1.918	-4.330	-0.166
1.9185	-4.330	-0.185
1.919	-4.330	-0.200
1.9195	-4.330	-0.186
1.92	-4.330	-0.165
1.9205	-4.330	-0.152
1.921	-4.330	-0.152
1.9215	-4.330	-0.142
1.922	-4.330	-0.094
1.9225	-4.330	-0.074
1.923	-4.330	-0.042
1.9235	-4.330	-0.021
1.924	-4.330	0.015
1.9245	-4.330	0.034
1.925	-4.330	0.065
1.9255	-4.330	0.084
1.926	-4.330	0.098
1.9265	-4.330	0.123
1.927	-4.330	0.126
1.9275	-4.330	0.126
1.928	-4.330	0.146
1.9285	-4.330	0.160
1.929	-4.330	0.146
1.9295	-4.330	0.138
1.93	-4.330	0.136
1.9305	-4.330	0.087
1.931	-4.330	0.022
1.9315	-4.330	-0.007
1.932	-4.331	-0.038
1.9325	-4.331	-0.077
1.933	-4.331	-0.109
1.9335	-4.331	-0.110
1.934	-4.331	-0.151
1.9345	-4.331	-0.174
1.935	-4.331	-0.205
1.9355	-4.331	-0.214
1.936	-4.331	-0.213
1.9365	-4.331	-0.195
1.937	-4.331	-0.203
1.9375	-4.331	-0.203
1.938	-4.331	-0.165
1.9385	-4.331	-0.135
1.939	-4.331	-0.103
1.9395	-4.331	-0.072
1.94	-4.331	-0.034
1.9405	-4.331	0.019
1.941	-4.331	0.050
1.9415	-4.331	0.089
1.942	-4.331	0.102
1.9425	-4.331	0.120
1.943	-4.331	0.132
1.9435	-4.331	0.159
1.944	-4.331	0.144
1.9445	-4.331	0.126
1.945	-4.331	0.137
1.9455	-4.331	0.120
1.946	-4.331	0.120
1.9465	-4.331	0.105
1.947	-4.331	0.094
1.9475	-4.331	0.031
1.948	-4.331	-0.005
1.9485	-4.331	-0.036
1.949	-4.331	-0.075
1.9495	-4.331	-0.102
1.95	-4.331	-0.112
1.9505	-4.331	-0.148
1.951	-4.331	-0.164
1.9515	-4.331	-0.191
1.952	-4.331	-0.216
1.9525	-4.331	-0.219
1.953	-4.331	-0.194
1.9535	-4.331	-0.181
1.954	-4.331	-0.182
1.9545	-4.331	-0.189
1.955	-4.331	-0.162
1.9555	-4.331	-0.112
1.956	-4.331	-0.062
1.9565	-4.331	-0.026
1.957	-4.331	-0.005
1.9575	-4.331	0.028
1.958	-4.331	0.065
1.9585	-4.331	0.075
1.959	-4.331	0.099
1.9595	-4.331	0.128
1.96	-4.331	0.171
1.9605	-4.331	0.149
1.961	-4.331	0.129
1.9615	-4.331	0.131
1.962	-4.331	0.132
1.9625	-4.331	0.138
1.963	-4.331	0.124
1.9635	-4.331	0.093
1.964	-4.331	0.046
1.9645	-4.331	0.020
1.965	-4.331	-0.016
1.9655	-4.331	-0.036
1.966	-4.331	-0.077
1.9665	-4.331	-0.104
1.967	-4.331	-0.109
1.9675	-4.331	-0.144
1.968	-4.331	-0.165
1.9685	-4.331	-0.202
1.969	-4.331	-0.228
1.9695	-4.331	-0.219
1.97	-4.331	-0.195
1.9705	-4.331	-0.185
1.971	-4.331	-0.154
1.9715	-4.331	-0.115
1.972	-4.331	-0.088
1.9725	-4.331	-0.059
1.973	-4.331	-0.048
1.9735	-4.331	-0.036
1.974	-4.331	0.020
1.9745	-4.331	0.074
1.975	-4.331	0.115
1.9755	-4.331	0.134
1.976	-4.331	0.138
1.9765	-4.331	0.143
1.977	-4.331	0.125
1.9775	-4.331	0.123
1.978	-4.331	0.120
1.9785	-4.331	0.129
1.979	-4.331	0.128
1.9795	-4.331	0.121
1.98	-4.331	0.090
1.9805	-4.331	0.060
1.981	-4.331	0.012
1.9815	-4.331	-0.009
1.982	-4.331	-0.046
1.9825	-4.331	-0.070
1.983	-4.331	-0.106
1.9835	-4.331	-0.126
1.984	-4.331	-0.158
1.9845	-4.331	-0.182
1.985	-4.333	-0.213
1.9855	-4.333	-0.212
1.986	-4.333	-0.220
1.9865	-4.333	-0.200
1.987	-4.333	-0.186
1.9875	-4.333	-0.165
1.988	-4.333	-0.154
1.9885	-4.333	-0.125
1.989	-4.333	-0.069
1.9895	-4.333	-0.023
1.99	-4.333	0.013
1.9905	-4.333	0.036
1.991	-4.333	0.049
1.9915	-4.333	0.082
1.992	-4.333	0.095
1.9925	-4.333	0.117
1.993	-4.333	0.129
1.9935	-4.333	0.135
1.994	-4.333	0.119
1.9945	-4.333	0.119
1.995	-4.333	0.123
1.9955	-4.333	0.112
1.996	-4.333	0.100
1.9965	-4.333	0.074
1.997	-4.333	0.061
1.9975	-4.333	0.039
1.998	-4.333	-0.014
1.9985	-4.333	-0.067
1.999	-4.333	-0.098
1.9995	-4.333	-0.128
2.0	-4.333	-0.145
2.0005	-4.333	-0.160
2.001	-4.333	-0.186
2.0015	-4.333	-0.205
2.002	-4.333	-0.203
2.0025	-4.333	-0.196
2.003	-4.333	-0.182
2.0035	-4.333	-0.176
2.004	-4.333	-0.176
2.0045	-4.333	-0.153
2.005	-4.333	-0.138
2.0055	-4.333	-0.083
2.006	-4.333	-0.035
2.0065	-4.333	0.000
2.007	-4.333	0.030
2.0075	-4.333	0.053
2.008	-4.333	0.070
2.0085	-4.333	0.105
2.009	-4.333	0.124
2.0095	-4.333	0.143
2.01	-4.333	0.163
2.0105	-4.333	0.159
2.011	-4.333	0.147
2.0115	-4.333	0.133
2.012	-4.333	0.125
2.0125	-4.333	0.119
2.013	-4.333	0.105
2.0135	-4.333	0.076
2.014	-4.333	0.043
2.0145	-4.333	-0.001
2.015	-4.333	-0.023
2.0155	-4.333	-0.065
2.016	-4.333	-0.082
2.0165	-4.333	-0.095
2.017	-4.333	-0.100
2.0175	-4.333	-0.151
2.018	-4.333	-0.185
2.0185	-4.333	-0.234
2.019	-4.333	-0.240
2.0195	-4.333	-0.238
2.02	-4.333	-0.204
2.0205	-4.333	-0.187
2.021	-4.333	-0.179
2.0215	-4.333	-0.156
2.022	-4.333	-0.114
2.0225	-4.333	-0.072
2.023	-4.333	-0.033
2.0235	-4.333	-0.010
2.024	-4.333	0.036
2.0245	-4.333	0.072
2.025	-4.333	0.114
2.0255	-4.333	0.131
2.026	-4.333	0.128
2.0265	-4.333	0.133
2.027	-4.333	0.137
2.0275	-4.333	0.125
2.028	-4.333	0.138
2.0285	-4.333	0.138
2.029	-4.333	0.133
2.0295	-4.333	0.118
2.03	-4.333	0.096
2.0305	-4.333	0.060
2.031	-4.333	0.008
2.0315	-4.333	-0.008
2.032	-4.333	-0.035
2.0325	-4.333	-0.065
2.033	-4.333	-0.098
2.0335	-4.333	-0.118
2.034	-4.333	-0.154
2.0345	-4.333	-0.166
2.035	-4.333	-0.189
2.0355	-4.333	-0.215
2.036	-4.333	-0.205
2.0365	-4.333	-0.191
2.037	-4.333	-0.202
2.0375	-4.333	-0.185
2.038	-4.333	-0.176
2.0385	-4.333	-0.152
2.039	-4.333	-0.105
2.0395	-4.333	-0.058
2.04	-4.333	-0.029
2.0405	-4.333	0.008
2.041	-4.333	0.038
2.0415	-4.333	0.087
2.042	-4.333	0.111
2.0425	-4.333	0.128
2.043	-4.333	0.153
2.0435	-4.333	0.167
2.044	-4.333	0.150
2.0445	-4.333	0.138
2.045	-4.333	0.125
2.0455	-4.333	0.115
2.046	-4.333	0.115
2.0465	-4.333	0.104
2.047	-4.333	0.065
2.0475	-4.333	0.037
2.048	-4.333	0.008
2.0485	-4.333	-0.022
2.049	-4.333	-0.062
2.0495	-4.333	-0.085
2.05	-4.333	-0.114
2.0505	-4.333	-0.132
2.051	-4.333	-0.155
2.0515	-4.333	-0.171
2.052	-4.333	-0.188
2.0525	-4.333	-0.201
2.053	-4.333	-0.187
2.0535	-4.333	-0.187
2.054	-4.333	-0.196
2.0545	-4.333	-0.193
2.055	-4.333	-0.171
2.0555	-4.333	-0.124
2.056	-4.333	-0.071
2.0565	-4.333	-0.043
2.057	-4.333	-0.036
2.0575	-4.333	0.010
2.058	-4.333	0.072
2.0585	-4.333	0.117
2.059	-4.333	0.161
2.0595	-4.333	0.177
2.06	-4.333	0.160
2.0605	-4.333	0.140
2.061	-4.333	0.114
2.0615	-4.333	0.102
2.062	-4.333	0.095
2.0625	-4.333	0.095
2.063	-4.333	0.094
2.0635	-4.333	0.074
2.064	-4.333	0.019
2.0645	-4.333	-0.025
2.065	-4.333	-0.040
2.0655	-4.333	-0.057
2.066	-4.333	-0.060
2.0665	-4.333	-0.076
2.067	-4.333	-0.094
2.0675	-4.333	-0.145
2.068	-4.333	-0.171
2.0685	-4.333	-0.221
2.069	-4.333	-0.218
2.0695	-4.333	-0.182
2.07	-4.333	-0.151
2.0705	-4.333	-0.152
2.071	-4.333	-0.157
2.0715	-4.333	-0.163
2.072	-4.333	-0.134
2.0725	-4.333	-0.098
2.073	-4.333	-0.060
2.0735	-4.333	-0.028
2.074	-4.333	0.003
2.0745	-4.333	0.039
2.075	-4.333	0.068
2.0755	-4.333	0.090
2.076	-4.333	0.116
2.0765	-4.333	0.154
2.077	-4.333	0.163
2.0775	-4.333	0.156
2.078	-4.333	0.147
2.0785	-4.333	0.132
2.079	-4.333	0.131
2.0795	-4.333	0.133
2.08	-4.333	0.092
2.0805	-4.333	0.063
2.081	-4.333	0.020
2.0815	-4.333	-0.013
2.082	-4.333	-0.055
2.0825	-4.333	-0.071
2.083	-4.333	-0.088
2.0835	-4.333	-0.101
2.084	-4.333	-0.133
2.0845	-4.333	-0.163
2.085	-4.333	-0.197
2.0855	-4.333	-0.198
2.086	-4.333	-0.207
2.0865	-4.333	-0.197
2.087	-4.333	-0.179
2.0875	-4.333	-0.190
2.088	-4.333	-0.167
2.0885	-4.333	-0.148
2.089	-4.333	-0.096
2.0895	-4.333	-0.057
2.09	-4.333	-0.037
2.0905	-4.333	0.003
2.091	-4.333	0.028
2.0915	-4.333	0.072
2.092	-4.333	0.093
2.0925	-4.333	0.099
2.093	-4.333	0.121
2.0935	-4.333	0.157
2.094	-4.333	0.147
2.0945	-4.333	0.147
2.095	-4.333	0.140
2.0955	-4.333	0.128
2.096	-4.333	0.119
2.0965	-4.333	0.088
2.097	-4.333	0.058
2.0975	-4.333	0.019
2.098	-4.333	-0.020
2.0985	-4.333	-0.046
2.099	-4.333	-0.076
2.0995	-4.333	-0.102
2.1	-4.333	-0.114
2.1005	-4.333	-0.123
2.101	-4.333	-0.160
2.1015	-4.333	-0.187
2.102	-4.333	-0.209
2.1025	-4.333	-0.216
2.103	-4.333	-0.198
2.1035	-4.333	-0.172
2.104	-4.333	-0.162
2.1045	-4.333	-0.155
2.105	-4.333	-0.129
2.1055	-4.333	-0.094
2.106	-4.333	-0.064
2.1065	-4.333	-0.037
2.107	-4.333	-0.003
2.1075	-4.333	0.023
2.108	-4.333	0.062
2.1085	-4.333	0.095
2.109	-4.333	0.110
2.1095	-4.333	0.111
2.11	-4.333	0.132
2.1105	-4.333	0.098
2.111	-4.333	0.098
2.1115	-4.333	0.106
2.112	-4.333	0.129
2.1125	-4.333	0.148
2.113	-4.333	0.145
2.1135	-4.333	0.115
2.114	-4.333	0.064
2.1145	-4.333	0.004
2.115	-4.333	-0.020
2.1155	-4.333	-0.051
2.116	-4.333	-0.073
2.1165	-4.333	-0.099
2.117	-4.333	-0.113
2.1175	-4.333	-0.168
2.118	-4.333	-0.186
2.1185	-4.333	-0.212
2.119	-4.333	-0.207
2.1195	-4.333	-0.176
2.12	-4.333	-0.168
2.1205	-4.333	-0.174
2.121	-4.333	-0.172
2.1215	-4.333	-0.156
2.122	-4.333	-0.124
2.1225	-4.333	-0.092
2.123	-4.333	-0.058
2.1235	-4.333	-0.032
2.124	-4.333	0.029
2.1245	-4.333	0.077
2.125	-4.333	0.125
2.1255	-4.333	0.134
2.126	-4.333	0.142
2.1265	-4.333	0.168
2.127	-4.333	0.167
2.1275	-4.333	0.151
2.128	-4.333	0.144
2.1285	-4.333	0.118
2.129	-4.333	0.113
2.1295	-4.333	0.105
2.13	-4.333	0.089
2.1305	-4.333	0.059
2.131	-4.333	0.014
2.1315	-4.333	-0.011
2.132	-4.333	-0.046
2.1325	-4.333	-0.069
2.133	-4.333	-0.096
2.1335	-4.333	-0.112
2.134	-4.333	-0.131
2.1345	-4.333	-0.162
2.135	-4.333	-0.198
2.1355	-4.333	-0.204
2.136	-4.333	-0.210
2.1365	-4.333	-0.184
2.137	-4.333	-0.177
2.1375	-4.333	-0.174
2.138	-4.333	-0.165
2.1385	-4.333	-0.129
2.139	-4.333	-0.086
2.1395	-4.333	-0.045
2.14	-4.333	-0.022
2.1405	-4.333	-0.002
2.141	-4.333	0.024
2.1415	-4.333	0.080
2.142	-4.333	0.091
2.1425	-4.333	0.127
2.143	-4.333	0.156
2.1435	-4.333	0.174
2.144	-4.333	0.147
2.1445	-4.333	0.145
2.145	-4.333	0.141
2.1455	-4.333	0.134
2.146	-4.333	0.138
2.1465	-4.331	0.135
2.147	-4.331	0.087
2.1475	-4.331	0.037
2.148	-4.331	-0.000
2.1485	-4.331	-0.024
2.149	-4.331	-0.066
2.1495	-4.331	-0.101
2.15	-4.331	-0.135
2.1505	-4.331	-0.144
2.151	-4.331	-0.174
2.1515	-4.331	-0.196
2.152	-4.331	-0.225
2.1525	-4.331	-0.213
2.153	-4.331	-0.201
2.1535	-4.331	-0.190
2.154	-4.331	-0.183
2.1545	-4.331	-0.185
2.155	-4.331	-0.177
2.1555	-4.331	-0.143
2.156	-4.331	-0.098
2.1565	-4.331	-0.065
2.157	-4.331	-0.025
2.1575	-4.331	0.016
2.158	-4.331	0.062
2.1585	-4.331	0.074
2.159	-4.331	0.104
2.1595	-4.331	0.149
2.16	-4.331	0.181
2.1605	-4.331	0.156
2.161	-4.331	0.154
2.1615	-4.331	0.141
2.162	-4.331	0.133
2.1625	-4.331	0.126
2.163	-4.331	0.112
2.1635	-4.331	0.096
2.164	-4.331	0.063
2.1645	-4.331	0.017
2.165	-4.331	-0.012
2.1655	-4.331	-0.050
2.166	-4.331	-0.075
2.1665	-4.331	-0.109
2.167	-4.331	-0.116
2.1675	-4.331	-0.136
2.168	-4.331	-0.168
2.1685	-4.331	-0.190
2.169	-4.331	-0.195
2.1695	-4.331	-0.203
2.17	-4.331	-0.209
2.1705	-4.331	-0.207
2.171	-4.331	-0.191
2.1715	-4.331	-0.148
2.172	-4.331	-0.122
2.1725	-4.331	-0.074
2.173	-4.331	-0.038
2.1735	-4.331	-0.011
2.174	-4.331	0.024
2.1745	-4.331	0.066
2.175	-4.331	0.090
2.1755	-4.331	0.118
2.176	-4.331	0.142
2.1765	-4.331	0.170
2.177	-4.331	0.180
2.1775	-4.331	0.165
2.178	-4.331	0.159
2.1785	-4.331	0.143
2.179	-4.331	0.123
2.1795	-4.331	0.108
2.18	-4.331	0.089
2.1805	-4.331	0.055
2.181	-4.331	-0.013
2.1815	-4.331	-0.060
2.182	-4.331	-0.081
2.1825	-4.331	-0.123
2.183	-4.331	-0.140
2.1835	-4.331	-0.158
2.184	-4.331	-0.176
2.1845	-4.331	-0.210
2.185	-4.331	-0.242
2.1855	-4.331	-0.247
2.186	-4.331	-0.243
2.1865	-4.331	-0.221
2.187	-4.331	-0.190
2.1875	-4.331	-0.181
2.188	-4.331	-0.172
2.1885	-4.331	-0.138
2.189	-4.331	-0.106
2.1895	-4.331	-0.063
2.19	-4.331	-0.032
2.1905	-4.331	-0.005
2.191	-4.331	0.015
2.1915	-4.331	0.064
2.192	-4.331	0.094
2.1925	-4.331	0.127
2.193	-4.331	0.145
2.1935	-4.331	0.172
2.194	-4.331	0.143
2.1945	-4.331	0.124
2.195	-4.331	0.126
2.1955	-4.331	0.132
2.196	-4.331	0.123
2.1965	-4.331	0.111
2.197	-4.331	0.075
2.1975	-4.331	0.030
2.198	-4.331	-0.022
2.1985	-4.331	-0.038
2.199	-4.331	-0.063
2.1995	-4.331	-0.080
2.2	-4.331	-0.100
2.2005	-4.331	-0.122
2.201	-4.331	-0.161
2.2015	-4.331	-0.180
2.202	-4.331	-0.219
2.2025	-4.331	-0.225
2.203	-4.331	-0.200
2.2035	-4.331	-0.180
2.204	-4.331	-0.183
2.2045	-4.331	-0.188
2.205	-4.331	-0.165
2.2055	-4.331	-0.128
2.206	-4.331	-0.077
2.2065	-4.331	-0.034
2.207	-4.331	-0.003
2.2075	-4.331	0.019
2.208	-4.331	0.052
2.2085	-4.331	0.073
2.209	-4.331	0.099
2.2095	-4.330	0.129
2.21	-4.330	0.164
2.2105	-4.330	0.137
2.211	-4.330	0.126
2.2115	-4.330	0.128
2.212	-4.330	0.124
2.2125	-4.330	0.112
2.213	-4.330	0.106
2.2135	-4.330	0.081
2.214	-4.330	0.037
2.2145	-4.330	-0.001
2.215	-4.330	-0.021
2.2155	-4.330	-0.052
2.216	-4.330	-0.070
2.2165	-4.330	-0.089
2.217	-4.330	-0.112
2.2175	-4.330	-0.150
2.218	-4.330	-0.166
2.2185	-4.330	-0.187
2.219	-4.330	-0.200
2.2195	-4.330	-0.187
2.22	-4.330	-0.187
2.2205	-4.330	-0.193
2.221	-4.330	-0.205
2.2215	-4.330	-0.181
2.222	-4.330	-0.130
2.2225	-4.330	-0.075
2.223	-4.330	-0.048
2.2235	-4.330	-0.026
2.224	-4.330	-0.012
2.2245	-4.330	0.016
2.225	-4.330	0.064
2.2255	-4.330	0.093
2.226	-4.330	0.137
2.2265	-4.330	0.177
2.227	-4.330	0.185
2.2275	-4.330	0.163
2.228	-4.330	0.146
2.2285	-4.330	0.122
2.229	-4.330	0.117
2.2295	-4.330	0.113
2.23	-4.330	0.096
2.2305	-4.330	0.067
2.231	-4.330	0.022
2.2315	-4.330	-0.007
2.232	-4.330	-0.028
2.2325	-4.330	-0.063
2.233	-4.330	-0.083
2.2335	-4.330	-0.097
2.234	-4.330	-0.134
2.2345	-4.330	-0.152
2.235	-4.330	-0.188
2.2355	-4.330	-0.223
2.236	-4.330	-0.212
2.2365	-4.330	-0.195
2.237	-4.330	-0.195
2.2375	-4.330	-0.190
2.238	-4.330	-0.169
2.2385	-4.330	-0.138
2.239	-4.330	-0.090
2.2395	-4.330	-0.045
2.24	-4.330	-0.023
2.2405	-4.330	0.001
2.241	-4.330	0.039
2.2415	-4.330	0.077
2.242	-4.330	0.105
2.2425	-4.330	0.130
2.243	-4.330	0.151
2.2435	-4.330	0.176
2.244	-4.330	0.158
2.2445	-4.330	0.153
2.245	-4.330	0.150
2.2455	-4.330	0.140
2.246	-4.330	0.138
2.2465	-4.330	0.128
2.247	-4.330	0.090
2.2475	-4.330	0.053
2.248	-4.330	0.023
2.2485	-4.330	0.012
2.249	-4.330	-0.033
2.2495	-4.330	-0.065
2.25	-4.330	-0.078
2.2505	-4.330	-0.084
2.251	-4.330	-0.116
2.2515	-4.330	-0.145
2.252	-4.330	-0.174
2.2525	-4.330	-0.173
2.253	-4.330	-0.158
2.2535	-4.328	-0.168
2.254	-4.328	-0.181
2.2545	-4.328	-0.199
2.255	-4.328	-0.198
2.2555	-4.328	-0.154
2.256	-4.328	-0.107
2.2565	-4.328	-0.092
2.257	-4.328	-0.067
2.2575	-4.328	-0.056
2.258	-4.328	-0.019
2.2585	-4.328	-0.005
2.259	-4.328	0.026
2.2595	-4.328	0.056
2.26	-4.328	0.108
2.2605	-4.328	0.134
2.261	-4.328	0.150
2.2615	-4.328	0.149
2.262	-4.328	0.135
2.2625	-4.328	0.128
2.263	-4.328	0.108
2.2635	-4.328	0.061
2.264	-4.328	0.012
2.2645	-4.328	-0.041
2.265	-4.328	-0.065
2.2655	-4.328	-0.091
2.266	-4.328	-0.117
2.2665	-4.328	-0.133
2.267	-4.328	-0.136
2.2675	-4.328	-0.192
2.268	-4.328	-0.212
2.2685	-4.328	-0.232
2.269	-4.328	-0.216
2.2695	-4.328	-0.197
2.27	-4.328	-0.187
2.2705	-4.328	-0.181
2.271	-4.328	-0.167
2.2715	-4.328	-0.152
2.272	-4.328	-0.104
2.2725	-4.328	-0.048
2.273	-4.328	-0.019
2.2735	-4.328	0.005
2.274	-4.328	0.013
2.2745	-4.328	0.057
2.275	-4.328	0.105
2.2755	-4.328	0.126
2.276	-4.328	0.118
2.2765	-4.328	0.122
2.277	-4.328	0.127
2.2775	-4.328	0.109
2.278	-4.328	0.105
2.2785	-4.328	0.115
2.279	-4.328	0.143
2.2795	-4.328	0.149
2.28	-4.328	0.131
2.2805	-4.328	0.081
2.281	-4.328	0.021
2.2815	-4.328	-0.016
2.282	-4.328	-0.034
2.2825	-4.328	-0.061
2.283	-4.328	-0.101
2.2835	-4.328	-0.126
2.284	-4.328	-0.150
2.2845	-4.328	-0.198
2.285	-4.328	-0.209
2.2855	-4.328	-0.224
2.286	-4.328	-0.220
2.2865	-4.328	-0.196
2.287	-4.328	-0.160
2.2875	-4.328	-0.141
2.288	-4.328	-0.131
2.2885	-4.328	-0.113
2.289	-4.328	-0.090
2.2895	-4.328	-0.051
2.29	-4.328	-0.011
2.2905	-4.328	0.018
2.291	-4.327	0.039
2.2915	-4.327	0.082
2.292	-4.327	0.092
2.2925	-4.327	0.104
2.293	-4.327	0.116
2.2935	-4.327	0.138
2.294	-4.327	0.122
2.2945	-4.327	0.122
2.295	-4.327	0.099
2.2955	-4.327	0.097
2.296	-4.327	0.076
2.2965	-4.327	0.091
2.297	-4.327	0.079
2.2975	-4.327	0.046
2.298	-4.327	0.028
2.2985	-4.327	0.004
2.299	-4.327	-0.036
2.2995	-4.327	-0.074
2.3	-4.327	-0.096
2.3005	-4.327	-0.114
2.301	-4.327	-0.160
2.3015	-4.327	-0.191
2.302	-4.327	-0.243
2.3025	-4.327	-0.261
2.303	-4.327	-0.254
2.3035	-4.327	-0.243
2.304	-4.327	-0.231
2.3045	-4.327	-0.223
2.305	-4.327	-0.182
2.3055	-4.327	-0.131
2.306	-4.327	-0.080
2.3065	-4.327	-0.046
2.307	-4.327	-0.029
2.3075	-4.327	-0.005
2.308	-4.327	0.047
2.3085	-4.327	0.065
2.309	-4.327	0.087
2.3095	-4.327	0.121
2.31	-4.327	0.139
2.3105	-4.327	0.126
2.311	-4.327	0.115
2.3115	-4.327	0.118
2.312	-4.327	0.125
2.3125	-4.327	0.141
2.313	-4.327	0.139
2.3135	-4.327	0.100
2.314	-4.327	0.054
2.3145	-4.327	0.025
2.315	-4.327	0.006
2.3155	-4.327	-0.003
2.316	-4.327	-0.032
2.3165	-4.327	-0.065
2.317	-4.327	-0.098
2.3175	-4.327	-0.127
2.318	-4.327	-0.144
2.3185	-4.327	-0.170
2.319	-4.327	-0.192
2.3195	-4.327	-0.158
2.32	-4.327	-0.178
2.3205	-4.327	-0.186
2.321	-4.327	-0.172
2.3215	-4.327	-0.143
2.322	-4.327	-0.117
2.3225	-4.327	-0.084
2.323	-4.327	-0.058
2.3235	-4.325	-0.015
2.324	-4.325	0.020
2.3245	-4.325	0.055
2.325	-4.325	0.114
2.3255	-4.325	0.150
2.326	-4.325	0.171
2.3265	-4.325	0.177
2.327	-4.325	0.206
2.3275	-4.325	0.195
2.328	-4.325	0.192
2.3285	-4.325	0.198
2.329	-4.325	0.187
2.3295	-4.325	0.178
2.33	-4.325	0.164
2.3305	-4.325	0.128
2.331	-4.325	0.094
2.3315	-4.325	0.048
2.332	-4.325	0.023
2.3325	-4.325	-0.025
2.333	-4.325	-0.060
2.3335	-4.325	-0.094
2.334	-4.325	-0.112
2.3345	-4.325	-0.143
2.335	-4.325	-0.163
2.3355	-4.325	-0.174
2.336	-4.325	-0.161
2.3365	-4.325	-0.148
2.337	-4.325	-0.141
2.3375	-4.325	-0.146
2.338	-4.325	-0.177
2.3385	-4.325	-0.178
2.339	-4.325	-0.140
2.3395	-4.325	-0.102
2.34	-4.325	-0.087
2.3405	-4.325	-0.043
2.341	-4.325	-0.011
2.3415	-4.325	0.036
2.342	-4.325	0.044
2.3425	-4.325	0.067
2.343	-4.325	0.060
2.3435	-4.325	0.085
2.344	-4.325	0.051
2.3445	-4.325	0.025
2.345	-4.325	-0.021
2.3455	-4.325	-0.037
2.346	-4.325	-0.048
2.3465	-4.325	-0.040
2.347	-4.325	-0.054
2.3475	-4.325	-0.060
2.348	-4.325	-0.065
2.3485	-4.325	-0.065
2.349	-4.325	-0.067
2.3495	-4.325	-0.062
2.35	-4.325	-0.086
2.3505	-4.325	-0.134
2.351	-4.325	-0.179
2.3515	-4.325	-0.209
2.352	-4.325	-0.219
2.3525	-4.325	-0.211
2.353	-4.325	-0.160
2.3535	-4.325	-0.147
2.354	-4.323	-0.130
2.3545	-4.323	-0.112
2.355	-4.323	-0.080
2.3555	-4.323	-0.035
2.356	-4.323	0.016
2.3565	-4.323	0.037
2.357	-4.323	0.034
2.3575	-4.323	0.053
2.358	-4.323	0.078
2.3585	-4.323	0.108
2.359	-4.323	0.151
2.3595	-4.323	0.173
2.36	-4.323	0.188
2.3605	-4.323	0.152
2.361	-4.323	0.126
2.3615	-4.323	0.116
2.362	-4.323	0.095
2.3625	-4.323	0.083
2.363	-4.323	0.061
2.3635	-4.323	0.026
2.364	-4.323	-0.065
2.3645	-4.323	-0.103
2.365	-4.323	-0.098
2.3655	-4.323	-0.068
2.366	-4.323	-0.058
2.3665	-4.323	-0.105
2.367	-4.323	-0.160
2.3675	-4.323	-0.209
2.368	-4.323	-0.238
2.3685	-4.323	-0.269
2.369	-4.323	-0.280
2.3695	-4.323	-0.254
2.37	-4.323	-0.231
2.3705	-4.323	-0.196
2.371	-4.323	-0.180
2.3715	-4.323	-0.139
2.372	-4.323	-0.113
2.3725	-4.323	-0.083
2.373	-4.323	-0.039
2.3735	-4.323	0.014
2.374	-4.323	0.044
2.3745	-4.323	0.059
2.375	-4.323	0.088
2.3755	-4.323	0.094
2.376	-4.323	0.108
2.3765	-4.323	0.152
2.377	-4.323	0.188
2.3775	-4.323	0.159
2.378	-4.323	0.122
2.3785	-4.323	0.118
2.379	-4.323	0.113
2.3795	-4.323	0.116
2.38	-4.323	0.120
2.3805	-4.323	0.079
2.381	-4.323	0.024
2.3815	-4.323	-0.016
2.382	-4.323	-0.060
2.3825	-4.322	-0.092
2.383	-4.322	-0.116
2.3835	-4.322	-0.139
2.384	-4.322	-0.175
2.3845	-4.322	-0.204
2.385	-4.322	-0.211
2.3855	-4.322	-0.211
2.386	-4.322	-0.184
2.3865	-4.322	-0.149
2.387	-4.322	-0.144
2.3875	-4.322	-0.153
2.388	-4.322	-0.140
2.3885	-4.322	-0.120
2.389	-4.322	-0.081
2.3895	-4.322	-0.008
2.39	-4.322	0.044
2.3905	-4.322	0.065
2.391	-4.322	0.046
2.3915	-4.322	0.100
2.392	-4.322	0.104
2.3925	-4.322	0.061
2.393	-4.322	0.011
2.3935	-4.322	0.008
2.394	-4.322	-0.001
2.3945	-4.322	0.041
2.395	-4.322	0.037
2.3955	-4.322	-0.016
2.396	-4.322	-0.025
2.3965	-4.322	0.021
2.397	-4.322	0.065
2.3975	-4.322	0.067
2.398	-4.322	0.039
2.3985	-4.322	-0.019
2.399	-4.322	-0.086
2.3995	-4.322	-0.125
2.4	-4.322	-0.125
2.4005	-4.322	-0.157
2.401	-4.322	-0.207
2.4015	-4.322	-0.215
2.402	-4.322	-0.225
2.4025	-4.322	-0.245
2.403	-4.322	-0.219
2.4035	-4.322	-0.214
2.404	-4.322	-0.194
2.4045	-4.322	-0.152
2.405	-4.322	-0.105
2.4055	-4.322	-0.067
2.406	-4.322	-0.014
2.4065	-4.322	0.015
2.407	-4.322	0.041
2.4075	-4.322	0.084
2.408	-4.322	0.133
2.4085	-4.320	0.138
2.409	-4.320	0.125
2.4095	-4.320	0.157
2.41	-4.320	0.181
2.4105	-4.320	0.187
2.411	-4.320	0.176
2.4115	-4.320	0.173
2.412	-4.320	0.120
2.4125	-4.320	0.139
2.413	-4.320	0.148
2.4135	-4.320	0.108
2.414	-4.320	0.042
2.4145	-4.320	-0.018
2.415	-4.320	-0.045
2.4155	-4.320	-0.065
2.416	-4.320	-0.096
2.4165	-4.320	-0.114
2.417	-4.320	-0.150
2.4175	-4.320	-0.207
2.418	-4.320	-0.233
2.4185	-4.320	-0.261
2.419	-4.320	-0.275
2.4195	-4.320	-0.267
2.42	-4.320	-0.247
2.4205	-4.320	-0.225
2.421	-4.320	-0.183
2.4215	-4.320	-0.149
2.422	-4.320	-0.104
2.4225	-4.320	-0.061
2.423	-4.320	-0.014
2.4235	-4.320	0.026
2.424	-4.320	0.061
2.4245	-4.320	0.090
2.425	-4.320	0.129
2.4255	-4.320	0.116
2.426	-4.320	0.129
2.4265	-4.320	0.143
2.427	-4.320	0.163
2.4275	-4.320	0.122
2.428	-4.320	0.123
2.4285	-4.320	0.104
2.429	-4.320	0.119
2.4295	-4.320	0.126
2.43	-4.320	0.095
2.4305	-4.320	0.051
2.431	-4.320	0.024
2.4315	-4.320	0.013
2.432	-4.319	0.012
2.4325	-4.319	0.007
2.433	-4.319	0.010
2.4335	-4.319	0.005
2.434	-4.319	-0.033
2.4345	-4.319	-0.068
2.435	-4.319	-0.109
2.4355	-4.319	-0.170
2.436	-4.319	-0.243
2.4365	-4.319	-0.312
2.437	-4.319	-0.323
2.4375	-4.319	-0.272
2.438	-4.319	-0.236
2.4385	-4.319	-0.164
2.439	-4.319	-0.101
2.4395	-4.319	-0.067
2.44	-4.319	-0.029
2.4405	-4.319	0.019
2.441	-4.319	0.054
2.4415	-4.319	0.099
2.442	-4.319	0.118
2.4425	-4.319	0.134
2.443	-4.319	0.153
2.4435	-4.319	0.204
2.444	-4.319	0.210
2.4445	-4.319	0.213
2.445	-4.319	0.177
2.4455	-4.319	0.133
2.446	-4.319	0.107
2.4465	-4.319	0.069
2.447	-4.319	0.035
2.4475	-4.319	0.012
2.448	-4.319	-0.020
2.4485	-4.319	-0.039
2.449	-4.319	-0.074
2.4495	-4.319	-0.105
2.45	-4.319	-0.120
2.4505	-4.319	-0.146
2.451	-4.319	-0.210
2.4515	-4.319	-0.259
2.452	-4.319	-0.288
2.4525	-4.317	-0.289
2.453	-4.317	-0.225
2.4535	-4.317	-0.139
2.454	-4.317	-0.089
2.4545	-4.317	-0.082
2.455	-4.317	-0.097
2.4555	-4.317	-0.103
2.456	-4.317	-0.103
2.4565	-4.317	-0.067
2.457	-4.317	0.006
2.4575	-4.317	0.053
2.458	-4.317	0.096
2.4585	-4.317	0.149
2.459	-4.317	0.172
2.4595	-4.317	0.157
2.46	-4.317	0.125
2.4605	-4.317	0.121
2.461	-4.317	0.110
2.4615	-4.317	0.128
2.462	-4.317	0.156
2.4625	-4.317	0.189
2.463	-4.317	0.211
2.4635	-4.317	0.197
2.464	-4.317	0.155
2.4645	-4.317	0.111
2.465	-4.317	0.077
2.4655	-4.317	0.030
2.466	-4.317	-0.024
2.4665	-4.317	-0.047
2.467	-4.317	-0.050
2.4675	-4.317	-0.115
2.468	-4.317	-0.164
2.4685	-4.317	-0.232
2.469	-4.317	-0.293
2.4695	-4.316	-0.312
2.47	-4.316	-0.265
2.4705	-4.316	-0.243
2.471	-4.316	-0.241
2.4715	-4.316	-0.204
2.472	-4.316	-0.122
2.4725	-4.316	-0.060
2.473	-4.316	0.028
2.4735	-4.316	0.052
2.474	-4.316	0.025
2.4745	-4.316	0.020
2.475	-4.316	0.057
2.4755	-4.316	0.062
2.476	-4.316	0.082
2.4765	-4.316	0.085
2.477	-4.316	0.080
2.4775	-4.316	0.041
2.478	-4.316	-0.010
2.4785	-4.316	-0.037
2.479	-4.316	-0.070
2.4795	-4.316	-0.061
2.48	-4.316	0.012
2.4805	-4.316	0.040
2.481	-4.316	0.024
2.4815	-4.316	-0.014
2.482	-4.316	-0.058
2.4825	-4.316	-0.070
2.483	-4.316	-0.126
2.4835	-4.316	-0.184
2.484	-4.314	-0.229
2.4845	-4.314	-0.231
2.485	-4.314	-0.224
2.4855	-4.314	-0.249
2.486	-4.314	-0.272
2.4865	-4.314	-0.216
2.487	-4.314	-0.212
2.4875	-4.314	-0.241
2.488	-4.314	-0.253
2.4885	-4.314	-0.211
2.489	-4.314	-0.148
2.4895	-4.314	-0.050
2.49	-4.314	-0.022
2.4905	-4.314	-0.013
2.491	-4.314	0.013
2.4915	-4.314	0.070
2.492	-4.314	0.098
2.4925	-4.314	0.135
2.493	-4.314	0.185
2.4935	-4.314	0.217
2.494	-4.314	0.184
2.4945	-4.314	0.157
2.495	-4.314	0.141
2.4955	-4.314	0.124
2.496	-4.314	0.125
2.4965	-4.313	0.102
2.497	-4.313	0.054
2.4975	-4.313	0.018
2.498	-4.313	0.013
2.4985	-4.313	-0.000
2.499	-4.313	-0.025
2.4995	-4.313	-0.063
2.5	-4.313	-0.107
2.5005	-4.313	-0.132
2.501	-4.313	-0.151
2.5015	-4.313	-0.187
2.502	-4.313	-0.208
2.5025	-4.313	-0.200
2.503	-4.313	-0.185
2.5035	-4.313	-0.175
2.504	-4.313	-0.154
2.5045	-4.313	-0.151
2.505	-4.313	-0.155
2.5055	-4.313	-0.116
2.506	-4.313	-0.067
2.5065	-4.313	-0.044
2.507	-4.313	-0.025
2.5075	-4.311	-0.026
2.508	-4.311	0.014
2.5085	-4.311	0.073
2.509	-4.311	0.099
2.5095	-4.311	0.136
2.51	-4.311	0.149
2.5105	-4.311	0.111
2.511	-4.311	0.103
2.5115	-4.311	0.088
2.512	-4.311	0.082
2.5125	-4.311	0.107
2.513	-4.311	0.135
2.5135	-4.311	0.125
2.514	-4.311	0.102
2.5145	-4.311	0.078
2.515	-4.311	0.034
2.5155	-4.311	-0.017
2.516	-4.311	-0.038
2.5165	-4.311	-0.060
2.517	-4.309	-0.068
2.5175	-4.309	-0.095
2.518	-4.309	-0.090
2.5185	-4.309	-0.118
2.519	-4.309	-0.124
2.5195	-4.309	-0.142
2.52	-4.309	-0.151
2.5205	-4.309	-0.150
2.521	-4.309	-0.125
2.5215	-4.309	-0.152
2.522	-4.309	-0.147
2.5225	-4.309	-0.070
2.523	-4.309	0.004
2.5235	-4.309	0.052
2.524	-4.309	0.076
2.5245	-4.309	0.073
2.525	-4.309	0.094
2.5255	-4.308	0.099
2.526	-4.308	0.099
2.5265	-4.308	0.080
2.527	-4.308	0.088
2.5275	-4.308	0.094
2.528	-4.308	0.125
2.5285	-4.308	0.153
2.529	-4.308	0.148
2.5295	-4.308	0.117
2.53	-4.308	0.073
2.5305	-4.308	-0.003
2.531	-4.308	-0.077
2.5315	-4.308	-0.075
2.532	-4.308	-0.086
2.5325	-4.308	-0.106
2.533	-4.308	-0.103
2.5335	-4.306	-0.063
2.534	-4.306	-0.077
2.5345	-4.306	-0.108
2.535	-4.306	-0.159
2.5355	-4.306	-0.199
2.536	-4.306	-0.239
2.5365	-4.306	-0.251
2.537	-4.306	-0.246
2.5375	-4.306	-0.232
2.538	-4.306	-0.213
2.5385	-4.306	-0.182
2.539	-4.306	-0.160
2.5395	-4.306	-0.156
2.54	-4.306	-0.138
2.5405	-4.305	-0.083
2.541	-4.305	-0.022
2.5415	-4.305	0.072
2.542	-4.305	0.109
2.5425	-4.305	0.108
2.543	-4.305	0.129
2.5435	-4.305	0.136
2.544	-4.305	0.077
2.5445	-4.305	0.037
2.545	-4.305	0.069
2.5455	-4.305	0.115
2.546	-4.305	0.143
2.5465	-4.305	0.116
2.547	-4.303	0.093
2.5475	-4.303	0.047
2.548	-4.303	0.043
2.5485	-4.303	0.042
2.549	-4.303	0.020
2.5495	-4.303	-0.001
2.55	-4.303	0.048
2.5505	-4.303	0.092
2.551	-4.303	0.067
2.5515	-4.303	0.010
2.552	-4.303	-0.023
2.5525	-4.303	-0.018
2.553	-4.302	0.011
2.5535	-4.302	-0.013
2.554	-4.302	-0.043
2.5545	-4.302	-0.060
2.555	-4.302	-0.074
2.5555	-4.302	-0.080
2.556	-4.302	-0.044
2.5565	-4.302	0.002
2.557	-4.302	0.014
2.5575	-4.302	0.038
2.558	-4.302	0.036
2.5585	-4.300	0.040
2.559	-4.300	0.059
2.5595	-4.300	0.041
2.56	-4.300	0.049
2.5605	-4.300	0.058
2.561	-4.300	0.021
2.5615	-4.300	0.009
2.562	-4.300	-0.004
2.5625	-4.300	-0.057
2.563	-4.300	-0.057
2.5635	-4.298	-0.075
2.564	-4.298	-0.100
2.5645	-4.298	-0.122
2.565	-4.298	-0.119
2.5655	-4.298	-0.130
2.566	-4.298	-0.173
2.5665	-4.298	-0.223
2.567	-4.298	-0.245
2.5675	-4.298	-0.285
2.568	-4.298	-0.285
2.5685	-4.297	-0.275
2.569	-4.297	-0.269
2.5695	-4.297	-0.228
2.57	-4.297	-0.198
2.5705	-4.297	-0.177
2.571	-4.297	-0.173
2.5715	-4.297	-0.174
2.572	-4.297	-0.155
2.5725	-4.297	-0.122
2.573	-4.297	-0.064
2.5735	-4.295	-0.043
2.574	-4.295	0.001
2.5745	-4.295	0.047
2.575	-4.295	0.109
2.5755	-4.295	0.148
2.576	-4.295	0.171
2.5765	-4.295	0.190
2.577	-4.295	0.205
2.5775	-4.295	0.157
2.578	-4.294	0.131
2.5785	-4.294	0.093
2.579	-4.294	0.099
2.5795	-4.294	0.121
2.58	-4.294	0.091
2.5805	-4.294	0.062
2.581	-4.294	0.013
2.5815	-4.294	-0.041
2.582	-4.292	-0.098
2.5825	-4.292	-0.118
2.583	-4.292	-0.127
2.5835	-4.292	-0.131
2.584	-4.292	-0.145
2.5845	-4.292	-0.154
2.585	-4.292	-0.174
2.5855	-4.292	-0.200
2.586	-4.291	-0.232
2.5865	-4.291	-0.217
2.587	-4.291	-0.201
2.5875	-4.291	-0.188
2.588	-4.291	-0.172
2.5885	-4.291	-0.122
2.589	-4.291	-0.060
2.5895	-4.291	0.017
2.59	-4.289	0.068
2.5905	-4.289	0.106
2.591	-4.289	0.145
2.5915	-4.289	0.180
2.592	-4.289	0.227
2.5925	-4.289	0.285
2.593	-4.289	0.333
2.5935	-4.288	0.321
2.594	-4.288	0.261
2.5945	-4.288	0.208
2.595	-4.288	0.179
2.5955	-4.288	0.141
2.596	-4.288	0.134
2.5965	-4.288	0.127
2.597	-4.288	0.118
2.5975	-4.286	0.087
2.598	-4.286	0.063
2.5985	-4.286	0.011
2.599	-4.286	-0.045
2.5995	-4.286	-0.112
2.6	-4.286	-0.177
2.6005	-4.284	-0.199
2.601	-4.284	-0.247
2.6015	-4.284	-0.289
2.602	-4.284	-0.324
2.6025	-4.284	-0.327
2.603	-4.284	-0.293
2.6035	-4.284	-0.271
2.604	-4.283	-0.243
2.6045	-4.283	-0.205
2.605	-4.283	-0.164
2.6055	-4.283	-0.123
2.606	-4.283	-0.062
2.6065	-4.283	-0.009
2.607	-4.283	0.041
2.6075	-4.281	0.104
2.608	-4.281	0.124
2.6085	-4.281	0.147
2.609	-4.281	0.180
2.6095	-4.281	0.202
2.61	-4.281	0.195
2.6105	-4.280	0.149
2.611	-4.280	0.089
2.6115	-4.280	0.079
2.612	-4.280	0.096
2.6125	-4.280	0.086
2.613	-4.280	0.060
2.6135	-4.278	0.030
2.614	-4.278	-0.033
2.6145	-4.278	-0.094
2.615	-4.278	-0.090
2.6155	-4.278	-0.054
2.616	-4.278	-0.046
2.6165	-4.277	-0.088
2.617	-4.277	-0.136
2.6175	-4.277	-0.191
2.618	-4.277	-0.189
2.6185	-4.277	-0.192
2.619	-4.277	-0.156
2.6195	-4.275	-0.139
2.62	-4.275	-0.119
2.6205	-4.275	-0.103
2.621	-4.275	-0.085
2.6215	-4.275	-0.070
2.622	-4.273	-0.002
2.6225	-4.273	0.037
2.623	-4.273	0.079
2.6235	-4.273	0.105
2.624	-4.273	0.167
2.6245	-4.273	0.230
2.625	-4.272	0.294
2.6255	-4.272	0.301
2.626	-4.272	0.280
2.6265	-4.272	0.223
2.627	-4.272	0.183
2.6275	-4.270	0.167
2.628	-4.270	0.145
2.6285	-4.270	0.162
2.629	-4.270	0.182
2.6295	-4.270	0.149
2.63	-4.270	0.027
2.6305	-4.269	-0.088
2.631	-4.269	-0.176
2.6315	-4.269	-0.204
2.632	-4.269	-0.211
2.6325	-4.269	-0.220
2.633	-4.267	-0.245
2.6335	-4.267	-0.232
2.634	-4.267	-0.222
2.6345	-4.267	-0.241
2.635	-4.267	-0.280
2.6355	-4.266	-0.295
2.636	-4.266	-0.300
2.6365	-4.266	-0.271
2.637	-4.266	-0.282
2.6375	-4.266	-0.310
2.638	-4.264	-0.292
2.6385	-4.264	-0.251
2.639	-4.264	-0.184
2.6395	-4.264	-0.129
2.64	-4.263	-0.100
2.6405	-4.263	-0.065
2.641	-4.263	-0.043
2.6415	-4.263	-0.009
2.642	-4.263	0.008
2.6425	-4.261	0.030
2.643	-4.261	0.075
2.6435	-4.261	0.134
2.644	-4.261	0.135
2.6445	-4.261	0.134
2.645	-4.259	0.152
2.6455	-4.259	0.170
2.646	-4.259	0.210
2.6465	-4.259	0.207
2.647	-4.258	0.157
2.6475	-4.258	0.072
2.648	-4.258	-0.020
2.6485	-4.258	-0.111
2.649	-4.258	-0.149
2.6495	-4.256	-0.167
2.65	-4.256	-0.153
2.6505	-4.256	-0.142
2.651	-4.256	-0.165
2.6515	-4.255	-0.172
2.652	-4.255	-0.218
2.6525	-4.255	-0.251
2.653	-4.255	-0.249
2.6535	-4.255	-0.247
2.654	-4.253	-0.227
2.6545	-4.253	-0.208
2.655	-4.253	-0.153
2.6555	-4.253	-0.101
2.656	-4.252	-0.058
2.6565	-4.252	-0.024
2.657	-4.252	-0.005
2.6575	-4.252	0.028
2.658	-4.250	0.091
2.6585	-4.250	0.156
2.659	-4.250	0.190
2.6595	-4.250	0.214
2.66	-4.248	0.233
2.6605	-4.248	0.226
2.661	-4.248	0.241
2.6615	-4.248	0.272
2.662	-4.248	0.294
2.6625	-4.247	0.306
2.663	-4.247	0.329
2.6635	-4.247	0.331
2.664	-4.247	0.314
2.6645	-4.245	0.237
2.665	-4.245	0.153
2.6655	-4.245	0.054
2.666	-4.245	0.004
2.6665	-4.244	-0.021
2.667	-4.244	-0.023
2.6675	-4.244	-0.070
2.668	-4.244	-0.133
2.6685	-4.242	-0.214
2.669	-4.242	-0.248
2.6695	-4.242	-0.230
2.67	-4.241	-0.188
2.6705	-4.241	-0.216
2.671	-4.241	-0.253
2.6715	-4.241	-0.304
2.672	-4.239	-0.307
2.6725	-4.239	-0.274
2.673	-4.239	-0.215
2.6735	-4.239	-0.193
2.674	-4.237	-0.160
2.6745	-4.237	-0.091
2.675	-4.237	-0.018
2.6755	-4.237	-0.006
2.676	-4.236	0.004
2.6765	-4.236	0.027
2.677	-4.236	0.048
2.6775	-4.236	0.037
2.678	-4.234	0.047
2.6785	-4.234	0.055
2.679	-4.234	0.030
2.6795	-4.233	0.019
2.68	-4.233	0.003
2.6805	-4.233	-0.007
2.681	-4.233	-0.030
2.6815	-4.231	-0.030
2.682	-4.231	-0.038
2.6825	-4.231	-0.038
2.683	-4.231	-0.059
2.6835	-4.230	-0.073
2.684	-4.230	-0.088
2.6845	-4.230	-0.097
2.685	-4.228	-0.116
2.6855	-4.228	-0.130
2.686	-4.228	-0.146
2.6865	-4.228	-0.129
2.687	-4.227	-0.122
2.6875	-4.227	-0.112
2.688	-4.227	-0.098
2.6885	-4.225	-0.087
2.689	-4.225	-0.044
2.6895	-4.225	0.005
2.69	-4.225	0.025
2.6905	-4.223	0.064
2.691	-4.223	0.123
2.6915	-4.223	0.120
2.692	-4.222	0.104
2.6925	-4.222	0.086
2.693	-4.222	0.091
2.6935	-4.220	0.111
2.694	-4.220	0.077
2.6945	-4.220	0.085
2.695	-4.220	0.099
2.6955	-4.219	0.106
2.696	-4.219	0.120
2.6965	-4.219	0.121
2.697	-4.217	0.060
2.6975	-4.217	-0.039
2.698	-4.217	-0.100
2.6985	-4.216	-0.124
2.699	-4.216	-0.131
2.6995	-4.216	-0.135
2.7	-4.216	-0.126
2.7005	-4.214	-0.129
2.701	-4.214	-0.188
2.7015	-4.214	-0.210
2.702	-4.213	-0.250
2.7025	-4.213	-0.254
2.703	-4.213	-0.245
2.7035	-4.211	-0.222
2.704	-4.211	-0.200
2.7045	-4.211	-0.167
2.705	-4.209	-0.144
2.7055	-4.209	-0.100
2.706	-4.209	-0.051
2.7065	-4.209	-0.014
2.707	-4.208	0.028
2.7075	-4.208	0.053
2.708	-4.208	0.084
2.7085	-4.206	0.142
2.709	-4.206	0.170
2.7095	-4.206	0.194
2.71	-4.205	0.201
2.7105	-4.205	0.196
2.711	-4.205	0.182
2.7115	-4.203	0.166
2.712	-4.203	0.165
2.7125	-4.203	0.165
2.713	-4.202	0.179
2.7135	-4.202	0.177
2.714	-4.202	0.173
2.7145	-4.200	0.133
2.715	-4.200	0.098
2.7155	-4.200	0.038
2.716	-4.198	-0.012
2.7165	-4.198	-0.045
2.717	-4.198	-0.076
2.7175	-4.197	-0.133
2.718	-4.197	-0.194
2.7185	-4.197	-0.251
2.719	-4.195	-0.220
2.7195	-4.195	-0.180
2.72	-4.195	-0.154
2.7205	-4.194	-0.163
2.721	-4.194	-0.183
2.7215	-4.194	-0.176
2.722	-4.192	-0.123
2.7225	-4.192	-0.070
2.723	-4.192	-0.041
2.7235	-4.191	-0.034
2.724	-4.191	-0.002
2.7245	-4.191	0.044
2.725	-4.189	0.137
2.7255	-4.189	0.173
2.726	-4.189	0.176
2.7265	-4.188	0.169
2.727	-4.188	0.192
2.7275	-4.188	0.167
2.728	-4.186	0.119
2.7285	-4.186	0.095
2.729	-4.186	0.102
2.7295	-4.184	0.094
2.73	-4.184	0.039
2.7305	-4.184	0.000
2.731	-4.183	-0.028
2.7315	-4.183	-0.077
2.732	-4.183	-0.112
2.7325	-4.181	-0.135
2.733	-4.181	-0.154
2.7335	-4.181	-0.180
2.734	-4.180	-0.223
2.7345	-4.180	-0.250
2.735	-4.178	-0.235
2.7355	-4.178	-0.227
2.736	-4.178	-0.220
2.7365	-4.177	-0.189
2.737	-4.177	-0.161
2.7375	-4.177	-0.157
2.738	-4.175	-0.157
2.7385	-4.175	-0.146
2.739	-4.175	-0.078
2.7395	-4.173	-0.020
2.74	-4.173	0.017
2.7405	-4.173	0.048
2.741	-4.172	0.045
2.7415	-4.172	0.081
2.742	-4.170	0.092
2.7425	-4.170	0.108
2.743	-4.170	0.147
2.7435	-4.169	0.175
2.744	-4.169	0.129
2.7445	-4.169	0.107
2.745	-4.167	0.080
2.7455	-4.167	0.058
2.746	-4.167	0.045
2.7465	-4.166	0.031
2.747	-4.166	-0.037
2.7475	-4.164	-0.096
2.748	-4.164	-0.141
2.7485	-4.164	-0.145
2.749	-4.163	-0.155
2.7495	-4.163	-0.187
2.75	-4.163	-0.187
2.7505	-4.161	-0.187
2.751	-4.161	-0.211
2.7515	-4.159	-0.204
2.752	-4.159	-0.228
2.7525	-4.159	-0.231
2.753	-4.158	-0.206
2.7535	-4.158	-0.178
2.754	-4.158	-0.171
2.7545	-4.156	-0.148
2.755	-4.156	-0.123
2.7555	-4.155	-0.082
2.756	-4.155	-0.037
2.7565	-4.155	0.008
2.757	-4.153	0.057
2.7575	-4.153	0.074
2.758	-4.153	0.087
2.7585	-4.152	0.107
2.759	-4.152	0.117
2.7595	-4.150	0.096
2.76	-4.150	0.113
2.7605	-4.150	0.140
2.761	-4.148	0.140
2.7615	-4.148	0.144
2.762	-4.148	0.131
2.7625	-4.147	0.114
2.763	-4.147	0.124
2.7635	-4.145	0.123
2.764	-4.145	0.092
2.7645	-4.145	0.042
2.765	-4.144	0.012
2.7655	-4.144	-0.025
2.766	-4.142	-0.046
2.7665	-4.142	-0.064
2.767	-4.142	-0.092
2.7675	-4.141	-0.107
2.768	-4.141	-0.138
2.7685	-4.139	-0.196
2.769	-4.139	-0.240
2.7695	-4.139	-0.257
2.77	-4.138	-0.246
2.7705	-4.138	-0.230
2.771	-4.138	-0.210
2.7715	-4.136	-0.173
2.772	-4.136	-0.141
2.7725	-4.134	-0.083
2.773	-4.134	-0.052
2.7735	-4.134	-0.011
2.774	-4.133	0.026
2.7745	-4.133	0.076
2.775	-4.131	0.116
2.7755	-4.131	0.138
2.776	-4.131	0.149
2.7765	-4.130	0.149
2.777	-4.130	0.144
2.7775	-4.128	0.141
2.778	-4.128	0.136
2.7785	-4.128	0.120
2.779	-4.127	0.109
2.7795	-4.127	0.095
2.78	-4.125	0.055
2.7805	-4.125	0.020
2.781	-4.125	-0.002
2.7815	-4.123	-0.026
2.782	-4.123	-0.048
2.7825	-4.122	-0.058
2.783	-4.122	-0.058
2.7835	-4.122	-0.073
2.784	-4.120	-0.090
2.7845	-4.120	-0.126
2.785	-4.119	-0.147
2.7855	-4.119	-0.159
2.786	-4.119	-0.158
2.7865	-4.117	-0.124
2.787	-4.117	-0.077
2.7875	-4.116	-0.063
2.788	-4.116	-0.064
2.7885	-4.116	-0.068
2.789	-4.114	-0.024
2.7895	-4.114	0.018
2.79	-4.112	0.049
2.7905	-4.112	0.080
2.791	-4.112	0.108
2.7915	-4.111	0.153
2.792	-4.111	0.145
2.7925	-4.109	0.139
2.793	-4.109	0.135
2.7935	-4.109	0.141
2.794	-4.108	0.099
2.7945	-4.108	0.088
2.795	-4.106	0.114
2.7955	-4.106	0.149
2.796	-4.106	0.145
2.7965	-4.105	0.107
2.797	-4.105	0.060
2.7975	-4.103	0.034
2.798	-4.103	-0.018
2.7985	-4.102	-0.051
2.799	-4.102	-0.094
2.7995	-4.102	-0.156
2.8	-4.100	-0.210
2.8005	-4.100	-0.242
2.801	-4.098	-0.273
2.8015	-4.098	-0.288
2.802	-4.098	-0.327
2.8025	-4.097	-0.314
2.803	-4.097	-0.294
2.8035	-4.095	-0.261
2.804	-4.095	-0.231
2.8045	-4.095	-0.194
2.805	-4.094	-0.164
2.8055	-4.094	-0.120
2.806	-4.092	-0.050
2.8065	-4.092	0.013
2.807	-4.091	0.045
2.8075	-4.091	0.087
2.808	-4.091	0.130
2.8085	-4.089	0.166
2.809	-4.089	0.198
2.8095	-4.088	0.205
2.81	-4.088	0.221
2.8105	-4.088	0.212
2.811	-4.086	0.143
2.8115	-4.086	0.081
2.812	-4.084	0.068
2.8125	-4.084	0.069
2.813	-4.083	0.071
2.8135	-4.083	0.051
2.814	-4.083	0.024
2.8145	-4.081	0.016
2.815	-4.081	-0.001
2.8155	-4.080	-0.058
2.816	-4.080	-0.110
2.8165	-4.080	-0.147
2.817	-4.078	-0.140
2.8175	-4.078	-0.175
2.818	-4.077	-0.212
2.8185	-4.077	-0.230
2.819	-4.075	-0.227
2.8195	-4.075	-0.210
2.82	-4.075	-0.209
2.8205	-4.073	-0.196
2.821	-4.073	-0.194
2.8215	-4.072	-0.201
2.822	-4.072	-0.182
2.8225	-4.072	-0.138
2.823	-4.070	-0.077
2.8235	-4.070	-0.052
2.824	-4.069	-0.107
2.8245	-4.069	-0.118
2.825	-4.067	-0.012
2.8255	-4.067	0.096
2.826	-4.067	0.147
2.8265	-4.066	0.164
2.827	-4.066	0.167
2.8275	-4.064	0.157
2.828	-4.064	0.175
2.8285	-4.064	0.180
2.829	-4.063	0.175
2.8295	-4.063	0.158
2.83	-4.061	0.125
2.8305	-4.061	0.088
2.831	-4.059	0.056
2.8315	-4.059	0.025
2.832	-4.059	0.003
2.8325	-4.058	-0.042
2.833	-4.058	-0.092
2.8335	-4.056	-0.147
2.834	-4.056	-0.190
2.8345	-4.055	-0.224
2.835	-4.055	-0.226
2.8355	-4.055	-0.242
2.836	-4.053	-0.248
2.8365	-4.053	-0.241
2.837	-4.052	-0.211
2.8375	-4.052	-0.197
2.838	-4.052	-0.191
2.8385	-4.050	-0.201
2.839	-4.050	-0.157
2.8395	-4.048	-0.100
2.84	-4.048	-0.043
2.8405	-4.047	-0.022
2.841	-4.047	0.013
2.8415	-4.047	0.067
2.842	-4.045	0.096
2.8425	-4.045	0.129
2.843	-4.044	0.173
2.8435	-4.044	0.227
2.844	-4.044	0.241
2.8445	-4.042	0.225
2.845	-4.042	0.208
2.8455	-4.041	0.221
2.846	-4.041	0.225
2.8465	-4.039	0.216
2.847	-4.039	0.173
2.8475	-4.039	0.121
2.848	-4.038	0.069
2.8485	-4.038	0.042
2.849	-4.036	-0.015
2.8495	-4.036	-0.102
2.85	-4.034	-0.158
2.8505	-4.034	-0.185
2.851	-4.034	-0.206
2.8515	-4.033	-0.193
2.852	-4.033	-0.218
2.8525	-4.031	-0.253
2.853	-4.031	-0.253
2.8535	-4.031	-0.220
2.854	-4.030	-0.189
2.8545	-4.030	-0.174
2.855	-4.028	-0.174
2.8555	-4.028	-0.161
2.856	-4.027	-0.122
2.8565	-4.027	-0.057
2.857	-4.027	-0.022
